0.95555323
0.92374162
0.93473931
0.97041294
1.0068781
1.0301552
1.0395212
1.0445095
1.0556656
1.0793784
1.1127649
1.1463905
1.1693839
1.1774005
1.1725619
1.1614186
1.1499589
1.1424773
1.1382681
1.133061
1.1212865
1.101174
1.0737859
1.0423555
1.0102358
0.98178618
0.95956183
0.94414281
0.93416783
0.9292313
0.92819685
0.9293159
0.93027433
0.93075367
0.93054309
0.92901916
0.92571118
0.92201014
0.91776969
0.91209727
0.90480918
0.89779445
0.89168561
0.88600708
0.88043136
0.87575911
0.87161564
0.86711782
0.862889
0.86138246
0.86401166
0.87068037
0.88137555
0.89585699
0.91168992
0.92504765
0.93400702
0.93870249
0.93968404
0.93777928
0.93612293
0.93835495
0.9461785
0.95877036
0.97548276
0.99498109
1.0145382
1.0305054
1.0417619
1.048548
1.051226
1.0494448
1.0447292
1.0383501
1.0303327
1.0190732
1.0049617
0.98863674
0.97064904
0.95086057
0.93166513
0.91513927
0.90230325
0.89216139
0.88531824
0.88146764
0.87964025
0.87768625
0.87625941
0.87569738
0.87591312
0.87522259
0.87426374
0.87272661
0.86999855
0.8644313
0.8578398
0.85156914
0.84684775
0.84323815
0.84292734
0.84627071
0.85274858
0.85984264
0.86826198
0.87726701
0.885848
0.89124194
0.89452437
0.89534751
0.89364608
0.88807161
0.88175235
0.87591535
0.87120725
0.86596663
0.86183441
0.85834286
0.85498169
0.85031719
0.84702367
0.84615997
0.84802614
0.850843
0.85514785
0.85941056
0.86188943
0.86049846
0.85726783
0.85336975
0.84959824
0.84534136
0.84232289
0.84042362
0.83918514
0.83798636
0.83953959
0.84511861
0.85467156
0.86636492
0.87983861
0.89300718
0.90374106
0.91082237
0.91670586
0.9230529
0.93034158
0.93780189
0.94595343
0.95382177
0.96037924
0.96578768
0.9729037
0.98273585
0.99367971
1.0023437
1.0062194
1.002519
0.99037226
0.97292622
0.95756469
0.95078988
0.95563944
0.9714969
0.99495945
1.0193263
1.0374619
1.0460768
1.0470041
1.0439854
1.0404336
1.0393741
1.0422975
1.0474043
1.0508092
1.0506368
1.0477853
1.0441526
1.041337
1.0417881
1.0469032
1.0553251
1.0631294
1.0680433
1.0693811
1.067419
1.0626975
1.0585378
1.0581981
1.0628551
1.0703895
1.0791618
1.0865256
1.0891633
1.0833893000000001
1.0699963
1.0517905
1.0326307
1.015472
1.0050225
1.0034471
1.0097397
1.0191825
1.0290897
1.0369567
1.0417038
1.0426704
1.0437595
1.0477892
1.0553729
1.0629237
1.0682433
1.067608
1.058501
1.0398178
1.0173983
0.99794059
0.98770293
0.98853216
1.0019845
1.0238844
1.0471354
1.0625872
1.0678805
1.0631354
1.0525104
1.040659
1.0361743
1.0424846
1.0580256
1.0750333
1.0873393
1.0878016
1.0730621
1.0439125
1.0100973
0.98183017
0.96767934
0.97040773
0.99049075
1.021618
1.0547008
1.080304
1.0955316
1.0995571
1.0939099
1.0802856
1.0632438
1.0447321
1.0256809
1.00668
0.99194907
0.98440857
0.98571131
0.99537995
1.0134946
1.0368295
1.0608162
1.0810652
1.0968162
1.1068352
1.1096215
1.1037457
1.0903938
1.0702698
1.0449969
1.0182424
0.99668102
0.98494207
0.98439042
0.99346141
1.0094812
1.0269248
1.0398996
1.0455239
1.0457162
1.0435671
1.0420744
1.0441321
1.0519924
1.0642114
1.0763424
1.0842967
1.085919
1.0796903
1.0651595
1.0450743
1.0241982
1.0061917
0.99266415
0.98544674
0.98598613
0.99376206
1.0062912
1.0221875
1.0401022
1.0569798
1.0678975
1.0699711
1.0620356
1.0447083
1.020396
0.99621440000000006
0.97988834
0.97616504
0.98422147
1.0011581
1.0212322
1.0380784
1.0467452
1.0490205
1.0497401
1.0535568
1.0611006
1.0716555
1.0807901
1.0829692
1.0735936
1.0553027
1.0335731
1.0142345
0.99942907
0.99120768
0.98826964
0.98887588
0.99174046
1.001527
1.0218894
1.0526782
1.0861988
1.1133402
1.122959
1.1085712
1.0710727
1.0241309
0.9843419
0.96515841
0.96912474
0.99206225
1.020965
1.0426726
1.0487326
1.0443319
1.0392174
1.0429792
1.0571344
1.0782782
1.0950704
1.0962848
1.0761007
1.0422033
1.0077893
0.98667086
0.98535539
1.0043674
1.0339088
1.0605726
1.0730327
1.0710384
1.0600861
1.0490555
1.0445663
1.0510839
1.0653118
1.079609
1.085688
1.0814097
1.0675724
1.0478062
1.0263829
1.0092926
0.99872828
0.99420481
0.99402832
0.99915118
1.009317
1.0235899
1.0403537
1.0592692
1.0774246
1.0904448
1.0944317
1.0889254
1.0743749
1.0529642
1.0294035
1.0111265
1.003274
1.0074002
1.0222766
1.0453563
1.0710736
1.0930276
1.1072613
1.1134963
1.1120158
1.1028215
1.0870368
1.0670717
1.0449259
1.0227681
1.005177
0.997607
1.0022272
1.0162534
1.0347418
1.0518467
1.0620385
1.0626192
1.0574156
1.0538391
1.0577622
1.0696159
1.0860166
1.0997837
1.10251
1.0883276
1.0600011
1.0265044
0.9986053
0.98360277
0.98577976
1.0030979
1.0284395
1.0523248
1.0702263
1.0809744
1.0854661
1.0838186
1.0778435
1.0675957
1.0523854
1.0314379
1.0096831
0.99338489
0.98820163
0.99536392
1.0151225
1.0424651
1.0694581
1.0868556
1.0917005
1.0840039
1.066977
1.0440988
1.022427
1.0064496
0.99844727
0.99701193
1.0031718
1.0152734
1.0305625
1.0438894
1.0545802
1.0613211
1.0643704
1.0637631
1.06461
1.0693238
1.0780663
1.0866705
1.0929829
1.0927787
1.0833588
1.0636784
1.0400772
1.0192229
1.0073853
1.0070778
1.0206169
1.044446
1.0718802
1.0945324
1.1087803
1.1120615
1.1044287
1.0874220000000001
1.0667257
1.0461421
1.0277951
1.011846
1.0007613
0.99525101
0.99575474
1.002405
1.0174807
1.0399868
1.0659522
1.0891059
1.1049153
1.1086274
1.0978646
1.0743037
1.0456779
1.0200327
1.0037354
1.0001927
1.0108178
1.0317981
1.0563223
1.0780015
1.0940209
1.1025587
1.1028844
1.09604
1.0849146
1.0707992
1.0537465
1.0347924
1.0169909
1.002705
0.99328577
0.99051928
0.99615759
1.0093029
1.0265894
1.0450419
1.0622782
1.0751123
1.0801
1.0766102
1.06638
1.051727
1.0348881
1.0202433
1.0123904
1.0136282
1.0229731
1.0392144
1.0598711
1.0809822
1.0976055
1.1080842
1.1120708
1.1092232
1.0982148
1.0805398
1.0585768
1.0352787
1.0134427
0.99878108
0.99551088
1.0042743
1.0203513
1.0387659
1.0530059
1.0576413
1.0493335
1.0319958
1.0114419
0.99281555
0.97718703
0.9654976
0.95595254
0.94691989
0.93779759
0.93431141
0.94210814
0.9640782
0.99602776
1.031695
1.0600325
1.0707419
1.0573563
1.0254163
0.98617066
0.95383728
0.93866169
0.9481277
0.97959785
1.0232225
1.0639525
1.0921907
1.1009824
1.0893334
1.0600858
1.0240022
0.99102434
0.96962093
0.96366482
0.97657075
1.0053358
1.0426697
1.0776775
1.1029952
1.1121364
1.1027511
1.076492
1.0426098
1.0103391
0.98736838
0.97710865
0.98182943
0.99838609
1.0209703
1.0428974
1.0615149
1.0745272
1.080665
1.0791329
1.0722304
1.0608942
1.0456061
1.0270778
1.0092368
0.9948758
0.98595103
0.98357723
0.98996697
1.0043148
1.0234338
1.0431577
1.0609629
1.0734612
1.0776482
1.0726686
1.0612941
1.046094
1.0292109
1.013296
1.0023645
0.99875236
1.0030982
1.0157379
1.0366966
1.0622667
1.0852583
1.0985251
1.0975476
1.0807334
1.0510435
1.0175902
0.99226706
0.98317077
0.99080151
1.0100114
1.0321561
1.0481589
1.0528869
1.0499299
1.0482526
1.0555764
1.0728925
1.0955007
1.1136097
1.116586
1.0984462
1.0644064
1.0274169
1.0015149
0.99444803
1.0072238
1.0322379
1.0573038
1.0712266
1.0725424
1.0670018
1.0633731
1.0669195
1.0795028
1.0956909
1.1058219
1.1002313
1.0783261
1.0463393
1.0150766
0.99405433
0.99160283
1.0081556
1.0372267
1.0671217
1.090123
1.1009091
1.0984662
1.083985
1.0645006
1.0460006
1.0327965
1.0252409
1.0251436
1.0308957
1.0395026
1.0458777
1.0498402
1.05091
1.0499995
1.0469796
1.0463021
1.0492856
1.0553765
1.0607791
1.0650996
1.0668165
1.0658345
1.0623678
1.0613006
1.0650261
1.073512
1.0826792
1.0899981
1.0907004
1.0813377
1.0607379
1.0352376
1.0121357
0.99872396
0.99909633
1.0161493
1.0459895
1.0800696
1.107486
1.1215677
1.117972
1.0970359
1.0636182
1.028524
1.0012474
0.98818033
0.99119935
1.0101354
1.0396223
1.0717819
1.0990151
1.1178517
1.1259436
1.1225475
1.1088437
1.0890054
1.066182
1.0426957
1.0211704
1.0058209
0.99871706
0.99969334
1.0077047
1.0221209
1.0402527
1.058402
1.0742767
1.0876928
1.0977192
1.1024326
1.1009408
1.0937629
1.0808526
1.0621782
1.0404148
1.0205837
1.00703
1.0021024
1.00761
1.0233562
1.0454708
1.0670542
1.0827571
1.0891972
1.0845493
1.0686155
1.0455218
1.0211245
1.0002922
0.9851259
0.97805183
0.97993615
0.98955911
1.0036303
1.0210494
1.04049
1.0597001
1.0747006
1.0839539
1.0858316
1.0787592
1.0610709
1.0361952
1.0098099
0.9890406
0.9796623
0.98813578
1.0152844
1.0550468
1.094252
1.1209417
1.1251137
1.103723
1.0613387
1.0134124
0.97633247
0.96163108
0.96985482
0.99552854
1.0261039
1.0493157
1.0573379
1.0547472
1.0506165
1.0541456
1.0672405
1.0877881
1.1055716
1.1092658
1.0907732
1.0551497
1.0136675
0.98078487
0.96623805
0.97620233
1.006238
1.0455622
1.0805664
1.1046552
1.1147917
1.112537
1.1006496
1.0855425
1.0700279
1.0546629
1.0379957
1.0225254
1.0100807
1.0027325
1.0014146
1.0089849
1.0247985
1.0459597
1.0677868
1.0883589
1.1044238
1.1130117
1.1118872
1.1031505
1.0888635
1.0715565
1.0540587
1.0416893
1.0372883
1.0414083
1.0527407
1.0705421
1.0913021
1.1100621
1.1222704
1.1265194
1.1214522
1.1067184
1.0843486
1.0601888
1.0399386
1.0283198
1.0291071
1.0447239
1.0723819
1.1045154
1.1322291
1.1484337
1.1478518
1.1291243
1.0973065
1.0625175
1.0344022
1.0189826
1.0188564
1.0327613
1.0551151
1.0783713
1.098009
1.1129012
1.1228954
1.1271094
1.125832
1.1191193
1.1060585
1.0857974
1.0618135
1.0400075
1.0257799
1.0214438
1.0282685
1.0443873
1.065001
1.08356
1.0972362
1.1049066
1.10597
1.0987876
1.0847641
1.0659063
1.0452729
1.0264474
1.0166914
1.0213251
1.0408818
1.0686268
1.0962272
1.113416
1.1127168
1.0917421
1.059147
1.0274914
1.0087324
1.0079445
1.0258642
1.0551014
1.0845514
1.1028649
1.10755
1.1009817
1.0895089
1.0783044
1.0737862
1.0762936
1.0820697
1.0839334
1.0803226
1.0711115
1.0594146
1.0484053
1.0449741
1.0515039
1.0664738
1.083213
1.0974719
1.1035214
1.0978432
1.0789525
1.0528281
1.0258094
1.004334
0.99208225
0.99330651
1.0071369
1.0295508
1.0540741
1.0775951
1.0965992
1.1089083
1.1130473
1.1114623
1.1048545
1.0931086
1.0755204
1.0550026
1.0343374
1.0171596
1.0072091
1.0096101
1.0248284
1.0486216
1.0730711
1.0912946
1.0965987
1.0861007
1.0626976
1.0360474
1.015928
1.0091427
1.0175885
1.0390228
1.0653615
1.0864662
1.0948854
1.0893115
1.07186
1.0469568
1.0204553
0.99820316
0.98222425
0.9713331
0.96397298
0.9598736
0.95839889
0.95871026
0.96119304
0.96676919
0.97434945
0.98096338
0.98465506
0.98475374
0.9806031
0.97183068
0.96069806
0.95053173
0.94322037
0.93839379
0.93588763
0.93486851
0.93321722
0.92812038
0.91975387
0.90985629
0.90021378
0.89144158
0.88555194
0.88341375
0.88396421
0.88422843
0.88355757
0.88188059
0.87926573
0.8749687
0.87097757
0.86868385
0.86825012
0.86779839
0.86780554
0.86819211
0.86852336
0.86729949
0.86603802
0.865662
0.86637596
0.86650309
0.86681197
0.86704601
0.86666197
0.8639884
0.86093881
0.85869437
0.85802443
0.85770459
0.85919658
0.86221703
0.8659679
0.86814692
0.87026577
0.87278962
0.876033
0.87842841
0.881676
0.88572199
0.89042307
0.89426524
0.89975626
0.90776647
0.91856394
0.930033
0.94263091
0.95452921
0.96357738
0.96673051
0.9652178
0.95954774
0.95050871
0.93787705
0.92458255
0.91195169
0.90096296
0.891594
0.88651276
0.88626307
0.88996559
0.89487555
0.90040392
0.9046817
0.90632357
0.90471145
0.90297525
0.90328915
0.90672201
0.91256515
0.92089663
0.92944336
0.93527029
0.93608992
0.93311885
0.92765925
0.92116043
0.91501571
0.91181319
0.91193118
0.91425774
0.91750998
0.9222636
0.92837146
0.93535408
0.94314289
0.95274571
0.9631508
0.97165976
0.97576738
0.97480883
0.96826744
0.95654259
0.94238954
0.93045036
0.92366027
0.92229321
0.92530483
0.93089034
0.93570824
0.9363071
0.93205522
0.92493216
0.91700163
0.90914491
0.90237591
0.89699419
0.89166847
0.88425208
0.87499791
0.86567582
0.85779012
0.85141664
0.84719282
0.84480825
0.84261079
0.83818142
0.83196999
0.8256933
0.82108981
0.8185968
0.81970122
0.82456527
0.83177538
0.83839848
0.84398319
0.84842444
0.85162207
0.85245362
0.85209766
0.85096525
0.84877952
0.84406547
0.83827155
0.83256374
0.82784939
0.82356252
0.82139216
0.82157223
0.82329838
0.82392482
0.82362424
0.82184596
0.81823032
0.81155768
0.80409923
0.79710624
0.79133136
0.78560004
0.78140015
0.77864351
0.77703159
0.77501493
0.77444512
0.7757482
0.77886116
0.78168548
0.78496307
0.7877664
0.78939656
0.7893413
0.78895089
0.78857066
0.78850354
0.78887509
0.79102451
0.79466807
0.79874486
0.80158683
0.80281568
0.80174086
0.79908577
0.79711411
0.79958277
0.80759988
0.81913125
0.82942996
0.83401647
0.82984682
0.81868162
0.80735164
0.80501043
0.81599491
0.83658697
0.85562222
0.86011977
0.84169384
0.8039332
0.7636061
0.74375043
0.75983645
0.80908381
0.86736653
0.89647696
