0.77308786
0.79833504
0.84649387
0.88174392
0.88540234
0.86242779
0.83253764
0.8154905
0.81912899
0.8365858
0.85356289
0.86092662
0.8577164
0.84874718
0.84140924
0.84029764
0.84448446
0.84915367
0.85105943
0.8487944
0.84228614
0.83504698
0.83087058
0.83112449
0.83430577
0.83846043
0.84121562
0.84044922
0.8390488
0.84097761
0.84757996
0.85775661
0.86764026
0.87148534
0.86523607
0.85314369
0.84110742
0.83338402
0.83288296
0.83837117
0.84497991
0.84786106
0.84750991
0.84526429
0.84171071
0.8396263
0.84053246
0.84478125
0.85330091
0.86871064
0.8898884
0.91044726
0.9252744
0.92929349000000006
0.92112855
0.90634382
0.89557708
0.89654224
0.90853576
0.92746715
0.94328468
0.94650088
0.93570529
0.91777055
0.90211573
0.89493221
0.89975687
0.9115913
0.92039463
0.91969121
0.90833174
0.88979764
0.87037801
0.85851351
0.85697722
0.86183661
0.86863891
0.87256283
0.87088179
0.86531824
0.86242956
0.86669237
0.87707458
0.89142024
0.90378078
0.90799519
0.9028623
0.89349947
0.88627989
0.88436014
0.89119907
0.90373778
0.91532029
0.92174285
0.92283817
0.92042653
0.91647412
0.91579641
0.91888836
0.92241291
0.92420195
0.92271119
0.91667128
0.90596753
0.89466733
0.88531093
0.87798442
0.87421299
0.87350099
0.87333672
0.87152684
0.8690619
0.86670687
0.86417961
0.86465143
0.86935646
0.87731961
0.8874438
0.89938766
0.9109732
0.9178647
0.92067542
0.91965653
0.91585241
0.91304694
0.9150806
0.92170379
0.92795903
0.93088126
0.92723011
0.91653743
0.90491233
0.89979829
0.90415424
0.91438253
0.92475318
0.92719931
0.91646124
0.89711281
0.87800383
0.86649312
0.86498539
0.87156096
0.8791724
0.88029831
0.87586644
0.8705122
0.8691853
0.87489836
0.88718841
0.90056459
0.90727428
0.90676071
0.90071493
0.89233431
0.88637155
0.88619096
0.89120941
0.89781298
0.90560019
0.9126471
0.91602102
0.91541239
0.91119358
0.90356894
0.89351149
0.8856544
0.88227379
0.88207302
0.88440711
0.88685727
0.88637536
0.8819951
0.8767141
0.87241246
0.8680772
0.86469844
0.86159154
0.85798305
0.85560926
0.85810697
0.86605114
0.87480777
0.8813422
0.88133385
0.87320095
0.86193937
0.85591639
0.86009365
0.87224069
0.8877269
0.89808577
0.89686276
0.8866146
0.87553122
0.87097045
0.87481828
0.88508763
0.89393358
0.89303158
0.88255634
0.86808041
0.85639338
0.85208426
0.85680807
0.86619932
0.87271725
0.87441371
0.87137743
0.864696
0.85647232
0.84927378
0.8436125
0.83831654
0.83701025
0.84140283
0.85053287
0.86260042
0.87493344
0.88391045
0.88686958
0.8874512
0.8890118
0.8927372
0.89957611
0.90815016
0.91482513
0.91635551
0.91456964
0.91153697
0.90820156
0.9073827
0.90958176
0.91258956
0.91392584
0.91404126
0.91301941
0.90991464
0.90730909
0.90586083
0.90403608
0.90047246
0.89537729
0.88837326
0.87807933
0.86797404
0.85985189
0.85396033
0.8512434
0.85258589
0.85699737
0.86194736
0.86841641
0.87588197
0.88252292
0.88859277
0.89415483
0.89779589
0.89770199
0.89581133
0.89341295
0.89082943
0.89110301
0.895446
0.90204146
0.90780259
0.91164391
0.91196007
0.90706632
0.90060117
0.89561707
0.89326069
0.89376838
0.8967558
0.89901343
0.89530458
0.88632843
0.87367416
0.86034959
0.85164586
0.85161357
0.85890896
0.86695159
0.87143637
0.8691737
0.86114162
0.85524733
0.85996499
0.87755102
0.90183225
0.92365207
0.93252376
0.92315122
0.9026182
0.88368596
0.8769228
0.8854476
0.90513287
0.92475526
0.93256036
0.92726813
0.91391886
0.89993728
0.8916342
0.8913502
0.89508687
0.89532066
0.89109653
0.88334856
0.87435023
0.86779006
0.86593485
0.8672497
0.86775442
0.86750965
0.86627187
0.86362508
0.8616145
0.86188141
0.86399839
0.86631402
0.8697229
0.87356444
0.87581815
0.87769195
0.88022938
0.88344832
0.88737923
0.8936758
0.90155234
0.90759031
0.91173202
0.91320728
0.91105355
0.90630809
0.90219225
0.90040837
0.89964867
0.90170204
0.90530944
0.90751538
0.9071623
0.90464595
0.89985932
0.89195044
0.88384071
0.87657879
0.86954088
0.86400962
0.86110782
0.8603603
0.86032894
0.86210907
0.86505142
0.86701976
0.86903018
0.87192655
0.87553761
0.87967666
0.88578606
0.89314776
0.89866506
0.90279294
0.90534739
0.90588746
0.90567589
0.90768621
0.91284597
0.91866635
0.92542715
0.93066486
0.93109166
0.92637101
0.91867469
0.91007527
0.90148006
0.89642179
0.8950981
0.89492973
0.89496926
0.89460784
0.89274563
0.88853218
0.88434041
0.8808208
0.87659827
0.87265628
0.86929751
0.86590738
0.86254677
0.86184066
0.86498075
0.87072551
0.88011608
0.89157806
0.90135326
0.906513
0.9067181
0.90217605
0.89287243
0.88392174
0.87796931
0.87484487
0.8741574
0.87529051
0.87653687
0.87601144
0.87656589
0.87928969
0.88273648
0.88613466
0.88783344
0.88532572
0.87726758
0.86722962
0.85820779
0.85103503
0.84768659
0.84768723
0.84844218
0.84795156
0.84760202
0.84839093
0.84967756
0.85358739
0.85992424
0.86651181
0.87196072
0.87697813
0.88162135
0.88420666
0.88694146
0.88959943
0.89050763
0.8897727
0.88884935
0.88846111
0.88818854
0.89043328
0.89475609
0.89829928
0.89994014
0.89911237
0.89523341
0.88854995
0.88284402
0.87998696
0.87896488
0.87986925
0.88091187
0.87901335
0.87255427
0.86419073
0.85724524
0.85410861
0.85921218
0.87268295
0.88985434
0.90447732
0.91194189
0.90943281
0.89666761
0.88080754000000006
0.86784923
0.86021596
0.85789065
0.85844059
0.85748242
0.8513759
0.84305148
0.8357937
0.83140303
0.83159652
0.83536377
0.83901386
0.8390229
0.83682306
0.83433507
0.83252382
0.83384317
0.83770929
0.84042214
0.83829892
0.83145672
0.82138847
0.81013701
0.80340912
0.80367863
0.80898947
0.8153702
0.81943484
0.81852647
0.81190309
0.80621185
0.80729205
0.81761843
0.83659341
0.85949112
0.87771943
0.88256623
0.87290161
0.85144406
0.82397408
0.79985655
0.78659457
0.78614963
0.79515091
0.80963346
0.82335439
0.8302231
0.82989038
0.82419001
0.81512453
0.80468373
0.79604529
0.79022959
0.78617636
0.785862
0.78911132
0.79302099
0.79423918
0.79128658
0.78413252
0.77454328
0.77037004
0.77639721
0.79147991
0.81014007
0.82464636
0.8281373
0.81877133
0.8047213
0.7953338
0.7956874
0.80637957
0.82203439
0.83436725
0.83792758
0.83570877
0.83298666
0.83302274
0.8378489
0.84483998
0.84877746
0.84667274
0.84143007
0.83706169
0.83519848
0.83776492
0.84230296
0.8440961
0.84078307
0.83445628
0.82820061
0.82314699
0.82223201
0.82412906
0.82513101
0.82365457
0.82106763
0.81965125
0.8210409
0.82868895
0.84158498
0.85457802
0.86355835
0.86603473
0.8617548
0.85347707
0.84834698
0.85050819
0.85847912
0.86919867
0.87709954
0.87709385
0.86861653
0.85773774
0.85091058
0.85075224
0.85860317
0.87014074
0.87821062
0.87835901
0.87164644
0.86155952
0.85087945
0.84486856
0.84393213
0.84478886
0.84484489
0.84336503
0.84033325
0.83604096
0.83448457
0.83716026
0.8427358
0.85047317
0.85887178
0.86520972
0.86699821
0.86584405
0.86308398
0.85918217
0.85717024
0.85842533
0.86167017
0.86462979
0.86687473
0.867114
0.86334017
0.85815068
0.85355952
0.85036065
0.8494495
0.85202814
0.85677663
0.85957307
0.86046721
0.85863619
0.85365667
0.84780084
0.84413428
0.84318685
0.84239125
0.84138936
0.83852565
0.8326615
0.82688277
0.82521234
0.82919651
0.83703159
0.84703152
0.85514047
0.85728185
0.85510456
0.85214828
0.85121873
0.85355242
0.85983195
0.86733473
0.87142319
0.87249227
0.87179951
0.87060038
0.87057634
0.87323641
0.87702988
0.87759416
0.87513202
0.86953144
0.86118897
0.85286289
0.84768847
0.84609474
0.84553774
0.84584201
0.84530164
0.84213989
0.83823
0.83631277
0.83732932
0.84002798
0.84427198
0.8477829
0.84758799
0.84524272
0.84331827
0.84344701
0.84617813
0.85226762
0.85958061
0.86400102
0.86583623
0.86565013
0.86381912
0.86159112
0.86092386
0.86157977
0.86082907
0.86006531
0.85920589
0.85740807
0.85545728
0.85464664
0.85453953
0.85305394
0.85145657
0.84950977
0.84606841
0.84256954
0.84074948
0.84088046
0.84206152
0.84537906
0.84984125
0.8528256
0.85478105
0.85612212
0.85644835
0.85556633
0.85521393
0.85551164
0.85467097
0.85434199
0.85492009
0.85537496
0.85520906
0.85532829
0.8555767
0.85415803
0.85371368
0.85472754
0.85576247
0.85619902
0.85617607
0.85526589
0.85275557
0.85208709
0.85429325
0.85726163
0.85936352
0.85876175
0.85384474
0.8449296
0.83709774
0.83362461
0.83378632
0.83663857
0.83923592
0.83862848
0.83507498
0.83368133
0.83831531
0.84831301
0.86257284
0.87640812
0.88474394
0.88675304
0.88673318
0.88889988
0.89348112
0.90121355
0.9084649
0.91085729
0.9085012
0.90554225
0.90579149
0.90964725
0.91733972
0.92472882
0.92645836
0.92206921
0.91449006
0.90693368
0.90098632
0.8985012
0.8975729
0.89431347
0.88888996
0.8825621
0.87611631
0.86995269
0.86564111
0.86301476
0.86073652
0.86164561
0.86730718
0.87663561
0.88713054
0.89626164
0.90071361
0.89756162
0.89100922
0.88513001
0.88230902
0.88400147
0.88948534
0.89499542
0.89583582
0.89286574
0.88751398
0.88117566
0.87721435
0.87743495
0.88031876
0.88241108
0.88306374
0.8809558
0.87468639
0.86700798
0.86045373
0.85576659
0.8527153
0.85207375
0.85252831
0.85112184
0.8490763
0.84719588
0.84560362
0.84518875
0.84772706
0.85299372
0.85817054
0.86425087
0.87027324
0.87417558
0.87562268
0.87532423
0.87311986
0.86813276
0.8635467
0.86096347
0.86022344
0.86258048
0.86833535
0.87556031
0.88120479
0.88511365
0.88599918
0.88179139
0.87435523
0.8659371
0.8580297
0.85199697
0.85033023
0.85246579
0.85460423
0.85583399
0.85474534
0.85046813
0.84482078
0.84205975
0.84453459
0.85058215
0.86018773
0.86998537
0.87566807
0.87622063
0.87377102
0.87078224
0.86844973
0.87018637
0.87566483
0.88156607
0.88635394
0.88933659
0.8898322
0.88771633
0.88631166
0.88706489
0.8888388
0.89228478
0.8965942
0.89926996
0.89815813
0.89425532
0.88815245
0.87956519
0.87201166
0.86750033
0.86601768
0.86728718
0.87149345
0.87672629
0.87877308
0.87798631
0.87420673
0.86795047
0.8626562
0.86263608
0.86926931
0.87990483
0.89307605
0.90501739
0.91199175
0.91483208
0.91602657
0.91645494
0.91485636
0.91189767
0.9076381
0.90306418
0.90402291
0.91457374
0.93262337
0.95012713
0.95821445
0.94946048
0.92273703
0.88943894
0.86370697
0.8547158
0.86304873
0.88143461
0.89760259
0.90105573
0.89351151
0.88149596
0.87155592
0.867622
0.86883984
0.87051206
0.86868145
0.86716193
0.87054103
0.88025726
0.89498747
0.9091657
0.9156875
0.9111834
0.90114887
0.89287923
0.89063653
0.89646523
0.90649978
0.91369002
0.91355251
0.90850138
0.90302998
0.89995571
0.90269597
0.90943829
0.91491055
0.91537965
0.9112261
0.9041553
0.89505105
0.8881468
0.88401517
0.88048616
0.87645219
0.87215074
0.86755328
0.8621369
0.8590025
0.85902699
0.86093207
0.8648119
0.87027352
0.8754672
0.87819733
0.87962788
0.88002758
0.87857805
0.87747803
0.87790071
0.87906904
0.87974347
0.88069832
0.88144148
0.88006287
0.87871696
0.87837404
0.87848242
0.87880257
0.88004285
0.8812616
0.87953171
0.87668648
0.87319378
0.86879257
0.86486763
0.86318301
0.86343722
0.86327395
0.86340022
0.86279593
0.85956825
0.85473334
0.85006331
0.84638393
0.8437536
0.84436554
0.8479855
0.85211209
0.85695269
0.86258853
0.86857721
0.87504532
0.88402346
0.89494953
0.90404082
0.91031704
0.91215774
0.90859236
0.90169991
0.89630394
0.89528641
0.89720638
0.90206638
0.90639009
0.90599963
0.90042038
0.89240789
0.88461451
0.87775434
0.87408428
0.87231963
0.86921548
0.8645228
0.85948616
0.85495028
0.85102851
0.84980233
0.85112996
0.85329569
0.85773687
0.86531828
0.87478837
0.88364001
0.89079331
0.89443419
0.89288586
0.88997317
0.88884966
0.89002138
0.89238305
0.89464125
0.89456939
0.89007335
0.88567026
0.88429847
0.88561903
0.88767204
0.88745451
0.88183205
0.8700788
0.85883416
0.85388212
0.85669586
0.86580396
0.87573117
0.87943002
0.87303181
0.8608886
0.8493263
0.84274271
0.84468439
0.85375466
0.86490471
0.87370989
0.88023372
0.88507824
0.88732264
0.88864021
0.88875773
0.88679327
0.88432535
0.88549189
0.89218161
0.9014276
0.91128647
0.91679589
0.91383073
0.90383605
0.89250017
0.88495189
0.88256045
0.88599473
0.89106856
0.89200602
0.88761323
0.88002275
0.87218178
0.86626021
0.86501565
0.86738174
0.8697095
0.87153705
0.87306903
0.874429
0.87609258
0.8798217
0.88507822
0.88916815
0.89271311
0.89552571
0.8966838
0.89617222
0.89494037
0.8922743
0.88554475
0.87636696
0.86529865
0.85280029
0.84145536
0.83418544
0.83143074
0.83078379
0.83168178
0.83144616
0.82712385
0.81961124
0.81121239
0.80339325
0.79640786
0.79179473
0.78867527
0.78484583
0.78144732
0.77945598
0.77845974
0.77738154
0.77620745
0.77359836
0.76773772
0.76146082
0.7570924
0.75532548
0.75616302
0.7591995
0.76212722
0.76156634
0.75939097
0.75674545
0.75389751
0.75187197
0.75122276
0.75070334
0.7482501
0.74574483
0.74397921
0.74243754
0.74191041
0.74233177
0.74205417
0.73925699
0.7354298
0.7313533
0.72672635
0.72350275
0.72234856
0.72209696
0.72135609999999994
0.72073946
0.72006703
0.7181443
0.7170694
0.71761555
0.71894982
0.72040249
0.7223109
0.72411389
0.72410305
0.72463211
0.72647345
0.72888793
0.73172757
0.73499865
0.73756984
0.73767181
0.73732879
0.73743114
0.73746067
0.73820607
0.73995902
0.74184731
0.74313839
0.74392431
0.74367533
0.74243917
0.74249666
0.74484123
0.7483291
0.7505926
0.74927438
0.74330059
0.7351166
0.73127354
0.73557265
0.745825
0.75500325
0.75527726
0.74432072
0.72925181
0.72439077
0.7380479
0.76483667
0.78785864
0.7891209
0.76484482
0.73324519
0.72600411
0.76299501
0.83215433
0.88839033
