0.74587605
0.76802978
0.81514494
0.86125758
0.89778706
0.93397852
0.98358755
1.0506671
1.1235559
1.1806739
1.2042688
1.1932259
1.1607557
1.1241648
1.0961163
1.07948
1.0693048
1.0594341
1.049239
1.0409721
1.0344575
1.0276348
1.0155237
0.99281255
0.95837992
0.91874473
0.88254395
0.85424462
0.83613598
0.82526865
0.81550324
0.8038007
0.79217184
0.78490934
0.78563492
0.79914079
0.8234955
0.85017358
0.87024031
0.87627229
0.86414801
0.83529619
0.79926652
0.76633728
0.7439001
0.73819704
0.74866399
0.76884853
0.79168263
0.81519726
0.84127905
0.87514489
0.92672234
0.99957033
1.0869943
1.1745071
1.2452063
1.2848506
1.2875762
1.2628044
1.2242781
1.1837765
1.1485041
1.1198367
1.0951934
1.0725389
1.0568886
1.0520459
1.0557416
1.0609903999999999
1.0568008
1.0327482
0.98565769
0.92604517
0.86862515
0.82433193
0.79913681
0.78942543
0.78534965
0.77841503
0.76825492
0.75826264
0.75104904
0.75017281
0.75419516
0.75817068
0.75868933
0.75673734
0.75415784
0.75082322
0.75008628
0.75203503
0.75585586
0.76430504
0.78158676
0.80936606
0.84569544
0.89018294
0.9395201
0.99037843
1.0438443
1.1008151
1.1578524
1.2067492
1.2395431
1.248404
1.2306199
1.194832
1.1543177
1.1207719
1.1003349
1.0935103
1.0940087
1.0929404
1.0884133
1.0816692
1.0743749
1.0673683
1.0604831
1.0501127
1.0305409
1.0032645
0.97094745
0.93635107
0.90310871
0.87449661
0.85118051
0.83177794
0.81868978
0.81231276
0.81026994
0.81067518
0.81099314
0.80795967
0.79955352
0.78904926
0.77917972
0.77053793
0.76558214
0.76435956
0.76527226
0.76865853
0.77946623
0.80267543
0.84146008
0.89988802
0.97497938
1.056601
1.1319728
1.1899917
1.222945
1.2287987
1.2167711
1.1971892
1.1778399
1.1634027
1.1535996
1.1435339
1.1274502
1.1059949
1.0812259
1.055399
1.0324334
1.0145019
1.0005133
0.98761234
0.97641557
0.96620992000000006
0.95397062
0.93902606
0.91999352
0.89480117
0.86310778
0.82955635
0.79883804
0.773337
0.75719033
0.75090552
0.75146671
0.75534004
0.7605931
0.76463343
0.76355443
0.7592442
0.75266108
0.74465181
0.73871176
0.73849252
0.74458576
0.75476388
0.76990332
0.78935579
0.81292836
0.84466898
0.88816124
0.94286668
1.003713
1.0650848
1.1186788
1.1570025
1.1799174
1.1903762
1.1916106
1.1860831
1.17602
1.1606947
1.1381997
1.1120038
1.0860147
1.0630082
1.0447097
1.0317929
1.0218547
1.0099861
0.99659291
0.98147669
0.96333564
0.94182789
0.91756801
0.89053957
0.86056446
0.83282957
0.8109859
0.79554752
0.78668708
0.78330222
0.78307723
0.78427231
0.78928021
0.79848691
0.80838721
0.81594796
0.81686721
0.80789099
0.7905139
0.77233604
0.76025364
0.7569373
0.76485278
0.78133696
0.80191374
0.82547178
0.85488518
0.89223245
0.93579529
0.9847831
1.0337677
1.0763671
1.1104167
1.1370299
1.1567893
1.1676959
1.1695878
1.1600612
1.1373939
1.1060405
1.0734914
1.0453876
1.0228099
1.0057199000000001
0.98965251
0.96868753
0.94278121
0.91482891
0.88789637
0.86403159
0.84535937
0.83083205
0.81731116
0.80615535
0.79855195
0.7942962
0.79232855
0.79122866
0.78776249
0.77816422
0.76503615
0.75212965
0.74364211
0.74455197
0.7577088
0.78130034
0.81001432
0.84194464
0.87533768
0.9101934
0.95104025
1.0011002
1.0580791
1.1140506
1.1602423
1.1863083
1.1853414
1.1608531
1.1218859
1.0788209
1.0403789
1.0122233
0.99333657
0.97810234
0.96395927
0.94848312
0.92968301
0.90717917
0.88212467
0.85472408
0.8240888
0.79463586
0.76984605
0.7515222
0.74129541
0.73970687
0.74419793
0.74985055
0.75557779
0.75966995
0.7601238
0.75782489
0.75425701
0.74958109
0.74303447
0.73651164
0.73036536
0.72358985
0.71845337
0.71603127
0.71519169
0.71441888
0.71432241
0.71462224
0.71478298
0.71905463
0.72946597
0.7447503
0.76247433
0.78095381
0.79900267
0.81696928
0.84165773
0.87719243
0.92233282
0.97148461
1.0155953
1.0445072
1.0515592
1.0399282
1.0167741
0.98972237
0.96593037
0.94821548
0.93440578
0.92031011
0.90556422
0.89059283
0.87562494
0.86369096
0.85599399
0.85040019
0.84340612
0.83468647
0.82424848
0.81172076
0.80112166
0.79449204
0.79029817
0.78551924
0.7787287
0.76937633
0.75795433
0.75136189
0.75408314
0.76548117
0.7812626
0.79487684
0.7992529
0.79044346
0.77409973
0.75783844
0.74748544
0.74760439
0.75814527
0.77513278
0.79488151
0.81955284
0.85212
0.89417785
0.9475589
1.0092717
1.0716773
1.1262574
1.1681016
1.194045
1.2026495
1.1980184
1.1839767
1.1631557
1.1384238
1.1133344
1.0897357
1.0671125
1.0483182
1.0337758
1.021878
1.0118968
1.0040213
0.99727657
0.98917106
0.98158528
0.97457163
0.96582615
0.95448768
0.93976882
0.92003528
0.89425828
0.86654376
0.8410867
0.82059221
0.80904892
0.80718875
0.81127206
0.81537485
0.81566645
0.80881526
0.79298546
0.77330052
0.75519089
0.74267536
0.7390811
0.74623423
0.7620561
0.78180604
0.80633
0.83628354
0.87321929
0.92089978
0.98138418
1.0509783
1.1202255
1.1807395
1.2231609
1.2409175
1.2358927
1.2147835
1.1842645
1.1486471
1.1133494
1.080322
1.0496106
1.025084
1.0094122
1.0009601
0.9939838
0.98256535
0.96027805
0.92342479
0.87820684
0.83400848
0.79883434
0.77700754
0.76844507
0.76743939
0.7655845
0.76088991
0.75337576
0.74450649
0.73742637
0.73489457
0.7374588
0.74472337
0.76094749
0.79016331
0.83487364
0.89716981
0.97387144
1.0547745
1.1256793
1.1758898
1.1974719
1.1886694
1.159003
1.1215373
1.0874832
1.0636386
1.052568
1.0499942
1.0480099
1.043674
1.035446
1.0229702
1.0075778
0.99116239
0.97320147
0.95103357
0.92652742
0.90093275
0.8750789
0.85095348
0.83042383
0.81309895
0.79656476
0.7827528
0.77286958
0.76704055
0.76709805
0.7740888
0.78620941
0.79961776
0.81316692
0.82470492
0.83149008
0.83528503
0.8380777
0.84073359
0.84371937
0.84793564
0.85028665
0.84485017
0.83071484
0.80898577
0.78411064
0.76438142
0.75791069
0.76565662
0.77969141
0.79240625
0.79674225
0.79309869
0.79309126
0.81290656
0.8620035
0.93586519
1.0200419
1.0923048
1.1339913
1.1412522
1.1235083
1.0954133
1.0682893
1.047536
1.0294109
1.0063953
0.97730184
0.94583833
0.91674974
0.89247639
0.87365883
0.85608831
0.83372179
0.80797526
0.78294679
0.76260685
0.74953124
0.74430348
0.74337178
0.74087763
0.73757057
0.73535129
0.73643143
0.74347744
0.75726011
0.77413552
0.78733298
0.79443716
0.79447327
0.78876239
0.78274949
0.78096137
0.78325095
0.78574922
0.78720251
0.78852665
0.79558796
0.82174727
0.87718392
0.96110066
1.059913
1.1523797
1.2154329
1.2345755
1.2144774
1.1717647
1.1262931
1.0930118
1.0767059
1.0705916
1.0621968
1.0459225
1.0215779
0.99398539
0.97099857
0.95833516
0.95540102
0.95587926
0.95487018
0.9471466
0.92908099
0.90257708
0.87232896
0.84252384
0.81562558
0.79554552
0.78258176
0.77358612
0.76757066
0.76317451
0.7581504
0.75086849
0.74304668
0.73624212
0.73111065
0.73203372
0.74056903
0.75417005
0.76865653
0.78002693
0.78412247
0.77856966
0.76939847
0.76208788
0.7597408
0.76397707
0.77376186
0.78558211
0.79642155
0.80986675
0.82986454
0.85889421
0.89905324
0.94849168
1.0008536
1.048174
1.0863146
1.1119282
1.122798
1.1212772
1.1099701
1.0904457
1.0643334
1.0354743
1.0065442
0.97813284
0.953513
0.93342229
0.91546328
0.89655363
0.87554425
0.85152685
0.8234691
0.79676279
0.77555968
0.76143533
0.75490528
0.75525796
0.75961412
0.76428216
0.77039336
0.77825557
0.78634606
0.79392072
0.79953881
0.80097997
0.79714054
0.79159657
0.78722634
0.78458879
0.78543626
0.78945086
0.79529829
0.80363772
0.81870589
0.8431085
0.87596972
0.91746702
0.96407359
1.0106419
1.0540482
1.0934949
1.1266908
1.1484096
1.1565671
1.1483346
1.1234455
1.0876756
1.0503321
1.0187984
0.99517858
0.9795122
0.9670006
0.95178482
0.93304175
0.91351189
0.89599102
0.88101126
0.8688877
0.85638095
0.83892243
0.81738097
0.79506704
0.77518409
0.75974451
0.75059163
0.74635738
0.74365029
0.74336759
0.7460919
0.7508226
0.75587538
0.75976401
0.7601643
0.75489947
0.74835409
0.74374818
0.74192571
0.74320726
0.74674063
0.75064544
0.75411551
0.76184221
0.77596178
0.7944764
0.81450132
0.83201278
0.84434043
0.85332382
0.86709915
0.89136445
0.9249001
0.96193562
0.99157163
1.0032751
0.99360012
0.96921434
0.94027143
0.91438285
0.89682209
0.88569164
0.87502442
0.86087743
0.84452357
0.82908275
0.81553127
0.80681705
0.80120803
0.79424935
0.78381238
0.77128708
0.75883743
0.7475155
0.74079764
0.73861972
0.73800175
0.73762671
0.73719751
0.73634643
0.73469748
0.73433248
0.73471873
0.73260457
0.72744517
0.71969988
0.71116891
0.70571631
0.70883787
0.72122857
0.73731927
0.75249058
0.76239088
0.76750459
0.77621128
0.80125737
0.85013309
0.91870356
0.99618452
1.0646278
1.1082552
1.1225727
1.1145084
1.0956971
1.0752329
1.0587675
1.0437745
1.0239975
0.99761627
0.9677036
0.93934048
0.9164032
0.90223457
0.89495721
0.88905244
0.88283419
0.87654251
0.87041362
0.86398193
0.85777449
0.84969401
0.83600308
0.8183513
0.79983999
0.78374434
0.77339694
0.77147376
0.77647537
0.78241062
0.78629069
0.78436404
0.77424377
0.75801827
0.740866
0.72752687
0.72050917
0.72338996
0.7349758
0.75112218
0.77032918
0.79248195
0.818228
0.84931754
0.89017594
0.94151785
0.99945382
1.0597192
1.1151394
1.157099
1.1791378
1.1802835
1.1623805
1.129288
1.0901455
1.0526121
1.020999
0.99714717
0.98105166
0.96930665
0.95581885
0.9395587
0.91931429
0.89415533
0.86568526
0.83720896
0.81100165
0.78766092
0.77050705
0.75987926
0.75328296
0.74926036
0.7468651
0.7453213
0.74465445
0.74785485
0.75505416
0.76233556
0.76646714
0.76415189
0.75416928
0.73985385
0.72905397
0.72706874
0.73319343
0.74559685
0.75855282
0.76734048
0.77380821
0.78581994
0.81051642
0.84913887
0.90003344
0.95354184
0.9973974
1.024311
1.0334204
1.0277127
1.0112762
0.99063474
0.96850736
0.94500121
0.92213224
0.90240145
0.88695215
0.87498713
0.86624007
0.8576929
0.84499177
0.82799215
0.80820803
0.78730844
0.76705684
0.75076617
0.73924742
0.73033334
0.72486294
0.72237005
0.720955
0.71913607
0.71705112
0.71398602
0.70787911
0.70142546
0.69630758
0.69328012
0.69399046
0.69964375
0.70862062
0.71682476
0.72339773
0.72671663
0.72595798
0.72460108
0.72656428
0.73339167
0.74416649
0.75876082
0.77512653
0.79135545
0.81041029
0.83580087
0.86903569
0.90899829
0.95298036
0.99460906
1.0259799
1.0443334
1.0488545
1.0404106
1.0221206
0.99870848
0.97351463
0.94766225
0.92524914
0.90794485
0.89501613
0.88543364
0.87764296
0.86828564
0.85297703
0.8326876
0.80897854
0.783485
0.76005394
0.74178139
0.72865843
0.71817811
0.70987657
0.70239092
0.69418146
0.6877133
0.68569109
0.68903352
0.69690524
0.70824317
0.71906165
0.72372398
0.72178649
0.71488236
0.70665966
0.7029256
0.70882479
0.72375915
0.74089965
0.75627244
0.76682204
0.77472417
0.78960629
0.82253427
0.87721894
0.94574396
1.0140747
1.06377
1.0812694
1.0670637
1.0329705
0.99447668
0.9632044
0.94506107
0.93638667
0.92843354
0.91699287
0.90181045
0.88440694
0.86612176
0.84862018
0.83078025
0.8102001
0.78994456
0.77380111
0.76376082
0.75966723
0.76004819
0.7615133
0.76051528
0.76014679
0.76324578
0.77011161
0.77895583
0.78607129
0.7867819
0.77846107
0.76579036
0.75444127
0.74816945
0.74970852
0.75855267
0.77177595
0.78728682
0.80778025
0.83491657
0.86749467
0.90435184
0.94107441
0.97176146
0.99282295
1.0054447
1.0111448
1.0097657
1.0031207
0.99091137
0.9725884
0.95062759
0.93068207
0.91706195
0.90958674
0.9078556
0.90673993
0.89951312
0.8832746
0.85991829
0.83321275
0.80631426
0.78501482
0.77114778
0.76278435
0.75865325
0.75723975
0.75587023
0.7516397
0.74530102
0.73729879
0.72765481
0.71962856
0.71569099
0.71585575
0.71851052
0.72267021
0.72578755
0.7247652
0.72175079
0.71907001
0.71846169
0.72199547
0.73138648
0.74531894
0.76000919
0.7765461
0.79593336
0.82010838
0.85313294
0.89770047
0.9510244
1.0044435
1.0494907
1.076682
1.0799442
1.0619502
1.0311107
0.99690781
0.96640714
0.94437709
0.92944531
0.9162197
0.90179265
0.88448904
0.86342821
0.83893632
0.8138982
0.79030709
0.76865584
0.75312621
0.74595791
0.74570036
0.7487424
0.75201677
0.75242499
0.74770206
0.74254715
0.74041496
0.74111188
0.74221905
0.74050569
0.73332401
0.72108002
0.71144755
0.71056414
0.71883867
0.73263508
0.74427243
0.74596676
0.73538638
0.71967107
0.70729643
0.70324604
0.71012663
0.72517799
0.74392013
0.76567793
0.79599646
0.83998907
0.8972566
0.96376127
1.0285339
1.0787161
1.1067979
1.113735
1.105204
1.0870409
1.0664637
1.0454708
1.0225926
0.99762114
0.97257571
0.94959773
0.92920575
0.91343316
0.90052654
0.88594269
0.86769135
0.84606383
0.8222089
0.79764412
0.77696964
0.76205091
0.75119345
0.74400121
0.73932214
0.73547516
0.73190209
0.73111748
0.73412222
0.73878661
0.74441753
0.74834289
0.74737136
0.74098895
0.7321257
0.72374557
0.71673837
0.71480648
0.71799775
0.72466884
0.73549434
0.75240849
0.77618144
0.8059123
0.84301103
0.88583143
0.93083717
0.97653197
1.0209447
1.0602073
1.089646
1.105291
1.1038675
1.0860659
1.058974
1.0307952
1.0071391
0.9892012
0.97381261
0.95568336
0.93220905
0.90669874
0.88281118
0.86097794
0.83805057
0.80960609
0.77517362
0.74202296
0.72350649
0.72643511
0.74404538
0.75856366
0.75179337
0.72042043
0.68361032
0.67411235
0.71255237
0.78689593
0.85130036
