0.88669661
0.86769841
0.88316676
0.9170555
0.94770434
0.96067147
0.95482302
0.94025583
0.93100256
0.93767708
0.96335995
1.0020133
1.042525
1.07452
1.0947103
1.1056265
1.1130779
1.1213906
1.1334397
1.1478206
1.1609937
1.1685442
1.170741
1.1699954
1.1696189
1.1704474
1.1719599
1.1714141
1.1652868
1.1506444
1.1280311
1.1013812
1.075695
1.0545294
1.0391425
1.0291742
1.0223044
1.0154341
1.0067331
0.99811046
0.99167296
0.98944311
0.99167892
1.0000121
1.0130987
1.0286991
1.0428466
1.056278
1.0689171
1.0810569
1.0912153
1.100321
1.1080698
1.1137621
1.1158719
1.1157861
1.1156103
1.1166147
1.1181623
1.1194804
1.1197529
1.1167231
1.1080503
1.0929957
1.0743883
1.0546706
1.0359631
1.0188011
1.0055151
0.99558278
0.98784285
0.97951704
0.97266048
0.96805576
0.96668949
0.96770783
0.97271761
0.98169206
0.99368051
1.0062847
1.0194175
1.0334303
1.0480354
1.0616948
1.0736011
1.0839367
1.092034
1.0970179
1.0988109
1.1000795
1.1022067
1.1055466
1.1084622
1.1112355
1.1117163
1.1076277
1.0956684
1.077893
1.0558346
1.0319381
1.0074322
0.9862218
0.97029976
0.9600996
0.95380972
0.95120101
0.95195362
0.95521132
0.95948815
0.96477161
0.97234383
0.9824528
0.99440226
1.0072223
1.0216536
1.0368783
1.051547
1.0634995
1.0739128
1.0828708
1.0907472
1.0962349
1.1019595
1.1083704
1.1152344
1.1200715
1.1229912
1.1230428
1.1190915
1.1092993
1.0947114
1.0771382
1.0581399
1.0384323
1.0196715
1.0040228
0.99199266
0.9828258
0.97557163
0.9711115
0.96898766
0.96847127
0.96818613
0.96988399
0.97381122
0.98003941
0.98665614
0.99535165
1.0058162
1.0174021
1.0277346
1.037373
1.0462383
1.054125
1.0598138
1.0643385
1.0689405
1.074002
1.0785336
1.0821981
1.0853239
1.0869615
1.0854604
1.0795921
1.0705583
1.0587135
1.0444433
1.0276217
1.011158
0.99613706
0.9832072
0.97086896
0.96126167
0.95440423
0.95015953
0.94694054
0.94625794
0.94873867
0.95444245
0.9618503
0.97112498
0.98230317
0.99460084
1.0062525
1.0166876
1.0266567
1.0360362
1.0439757
1.0496246
1.0542273
1.0578216
1.0601698
1.0602459
1.0601008
1.0599573
1.0594827
1.0559868
1.0504628
1.0421089
1.0305601
1.0147571
0.99755604
0.98140281
0.96823935
0.95804271
0.9518424
0.94966396
0.95012324
0.95074975
0.95065159
0.9507595
0.95167686
0.95364908
0.95692405
0.96338734
0.97307594
0.9850888
0.99728693
1.0104642
1.0239819
1.0372116
1.0477282
1.0571465
1.0654296
1.0725826
1.0771103
1.0806567
1.0839718
1.0871559
1.0885956
1.0884299
1.0867328
1.0829094
1.0756605
1.0652695
1.0535426
1.0414897
1.0293838
1.0173757
1.0072741
0.9992139
0.99271797
0.98644602
0.98215777
0.9801764
0.98075762
0.98223204
0.98657612
0.99371575
1.0031773
1.0126723
1.0228023
1.0334491
1.0442361
1.053587
1.0620473
1.0703919
1.078627
1.0855632
1.0909422
1.0956591
1.0996396
1.1021535
1.1026275
1.1026659
1.1024203
1.1013999
1.0979816
1.0934355
1.0873939
1.0795904
1.0682946
1.0561544
1.0441461
1.0331362
1.0221989
1.0131503
1.0065775
1.0024763
0.9995321
0.99861832
1.0007715
1.0061531
1.0135388
1.0223163
1.0326549
1.0436228
1.0537594
1.0620765
1.0701479
1.0784987
1.0871398
1.0947885
1.1028944
1.1110555
1.1187344
1.1236168
1.1276958
1.131088
1.1335519
1.1327866
1.1292353
1.1223638
1.1116316
1.0960025
1.0775164
1.0589067
1.0422063
1.0278637
1.0165407
1.0090316
1.0045481
1.0016207
0.9994118
0.99973883
1.0033174
1.0101534
1.0186286
1.0293145
1.0406283
1.0508913
1.0571615
1.0614301
1.0647248
1.0683484
1.0717605
1.0768183
1.0837814
1.0919628
1.099177
1.1054861
1.1112734
1.1162356
1.1188793
1.1185494
1.1154749
1.1090869
1.0987728
1.0849632
1.070738
1.0578923
1.0472306
1.0377533
1.0305021
1.0243483
1.0182835
1.0103083
1.0034099
0.99919067
0.99891845
1.0013427
1.0070751
1.0149465
1.0231672
1.0291819
1.0335291
1.0378221
1.0432608
1.0495363
1.0564738
1.0641684
1.0713375
1.0762989
1.0782824
1.0794558
1.0808282
1.0823793
1.0820505
1.0797652
1.073423
1.0614903
1.0421774
1.0195708
0.99715147
0.9784581
0.96436143
0.95697958
0.9555431
0.95763482
0.95941365
0.96008666
0.96026737
0.96095165
0.96256724
0.96637946
0.97400115
0.9851453
0.99819209
1.0114292
1.0254654
1.0398003
1.0535711
1.0648588
1.0748033
1.0830156
1.0892976
1.0919371
1.0937976
1.095963
1.0990393
1.1011969
1.1028882
1.1031031
1.1003762
1.0924674
1.0802503
1.0656931
1.0506556
1.0360321
1.0233757
1.0145164
1.0094016
1.0066719
1.004883
1.0047798
1.0060142
1.0080506
1.0095851
1.0124086
1.016783
1.0228483
1.0287983
1.0367646
1.046938
1.0591083
1.071018
1.0831642
1.0951493
1.1063039
1.1148803
1.1216211
1.1277403
1.1337036
1.1385682
1.1420168
1.1444926
1.1451957
1.1427255
1.1362217
1.1275143
1.1174298
1.1064668
1.0940585
1.0824422
1.0718681
1.06232
1.0519321
1.0430969
1.0363718
1.0321487
1.0289826
1.0282638
1.0302998
1.0349066
1.0405954
1.0480531
1.0580924
1.0705155
1.0835698
1.0961389
1.1081561
1.1187465
1.1268436
1.1321404
1.1371338
1.1430133
1.149988
1.1563549
1.1627465
1.1675938
1.169311
1.165066
1.1571578
1.1467841
1.1354494
1.1228813
1.1114021
1.101596
1.0930139
1.0836647
1.0739849
1.0649095
1.0570449
1.050158
1.0451103
1.0435386
1.0454672
1.049656
1.0546546
1.0612119
1.0689121
1.0771992
1.0847924
1.0937162
1.1042073
1.1160369
1.1266034
1.1372382
1.1474211
1.1568115
1.163743
1.1699378
1.1760251
1.1816097
1.1841439
1.182675
1.1762822
1.1639984
1.1451571
1.1217832
1.0979924
1.0769146
1.0600453
1.0475267
1.0400213
1.0357839
1.0326207
1.0283288
1.0251206
1.0244538
1.0278489
1.0342251
1.0454615
1.0603172
1.07678
1.0912774
1.1040402
1.1152609
1.1252793
1.13319
1.1397837
1.1454279
1.1494775
1.1504003
1.1482847
1.1448352
1.1409535
1.1365819
1.1312095
1.1257169
1.1191873
1.1103649
1.0977014
1.0835002
1.0688653
1.0548793
1.0404244
1.028047
1.0178685
1.0098528
1.0026038
0.99834996
0.9983934
1.0031389
1.0107723
1.0207246
1.0320391
1.043165
1.0522466
1.0594925
1.066884
1.075188
1.083461
1.0895458
1.0925445
1.0903192
1.0815252
1.0658409
1.0479908
1.0319219
1.020928
1.0145773
1.0143496
1.0179209
1.0222345
1.0233261
1.0219224
1.0192203
1.0166664
1.0140686
1.0123856
1.0115536999999999
1.0103577
1.0070954
1.0024541
0.99939058
1.0002151
1.0058258
1.0156946
1.0297268
1.0453231
1.0593541
1.0686826
1.0749229
1.0794076
1.0838567
1.0874932
1.0926177
1.0985335
1.1038447
1.1056059
1.1049145
1.1029558
1.1010554
1.0990159
1.0980994
1.0987066
1.0996509
1.0983681
1.0936716
1.0861007
1.0758114
1.0627586
1.0472641
1.031758
1.0173683
1.0048093
0.9939103
0.98734482
0.98581728
0.98928015
0.99506922
1.0040167
1.0149768
1.0270089
1.0381307
1.0500964
1.0641394
1.0808644
1.0987979
1.1176425
1.1365313
1.1535934
1.1661901
1.1736099
1.1773169000000001
1.1784962
1.1778489
1.1758833
1.1746418
1.1738686
1.172116
1.1666733
1.1582171
1.146372
1.1315124
1.1128926
1.094275
1.0773451
1.0630714000000001
1.049986
1.0390938
1.0302145
1.0230134
1.0164525
1.0123186
1.0127855
1.0188688
1.0294941
1.0434249
1.0596754
1.0759658
1.0897747
1.0996461
1.1073589
1.1139369
1.1198004
1.123694
1.1268597
1.1286409
1.1286869
1.1255489
1.1229853
1.1230891
1.1271737
1.1333002
1.14108
1.1478531
1.1503414
1.1449724
1.1323967
1.1153054
1.096849
1.0791916
1.0647102
1.055273
1.0501364
1.0470158
1.0439112
1.0417908
1.0412165
1.0429816
1.046978
1.0556569
1.0687846
1.0849463
1.1000457
1.1140187
1.1253968
1.1334509
1.1366832
1.1375099
1.1378497
1.1390672
1.1405715
1.1432514
1.147458
1.1523285
1.155794
1.1571153
1.156984
1.1552631
1.1512125
1.1442619
1.1359198
1.126298
1.1152127
1.1018754
1.0888164
1.0769687
1.0670226
1.0574811
1.0505566
1.0461305
1.043839
1.0418242
1.0416655
1.0442766
1.0501761
1.0582583
1.0690242
1.0824843
1.0973801
1.1111376
1.122425
1.1315552
1.1384428
1.142839
1.1449404
1.1470893
1.1498443
1.1526945
1.1536047
1.153208
1.1503642
1.1441813
1.1326421
1.1185058
1.1031322
1.0879523
1.0725986
1.0592709
1.0484661
1.0396649
1.0308026
1.0220992
1.0141522
1.0072876
1.0012307
0.99705718
0.99673334
1.0007099
1.0080943
1.0175237
1.0292737
1.0421091
1.0544837
1.0643044
1.0729803
1.0806986
1.0877425
1.0924986
1.0971948
1.1018653
1.1061017
1.1075791
1.1069599
1.1038953
1.0976634
1.0864295
1.0709593
1.0526174
1.0326458
1.0118268
0.99239966
0.9773834
0.96791547
0.96325724
0.96168553
0.96266624
0.9641068
0.9640633
0.96085687
0.95699994
0.95415894
0.95398289
0.95567383
0.96146019
0.97073815
0.98217565
0.99271719
1.002712
1.0121951
1.0211846
1.0284458
1.0346925
1.0405958
1.0459861
1.0496842
1.0518269
1.0538963
1.0562809
1.0583068
1.0589348
1.0588631
1.0572504
1.053048
1.0448648
1.035015
1.0245533
1.0144681
1.0035801
0.99420952
0.98625592
0.97926693
0.97134917
0.96403651
0.95849812
0.9558165
0.95575505
0.95970315
0.96856363
0.98178471
0.99712198
1.0129962
1.028997
1.0440528
1.0568729
1.0667241
1.0753887
1.0835062
1.091143
1.0971032
1.1029378
1.1084318
1.1132252
1.1151545
1.1161797
1.1164168
1.1157231
1.1121222
1.1064486
1.0986341
1.0884861
1.0750817
1.0601714
1.0459679
1.0339579
1.0241927
1.0171311
1.0135769
1.01285
1.0134873
1.014412
1.0170634
1.0218619
1.0287613
1.0364299
1.0461019
1.0570664
1.0683623
1.0772916
1.0854346
1.0929174
1.0998674
1.1046307
1.1083403
1.1111109
1.1126469
1.1115119
1.108676
1.1054154
1.1022061
1.098161
1.0930442
1.0872608
1.0800282
1.070098
1.056948
1.0427032
1.0285686
1.0154401
1.0031527
0.99410586
0.9885307
0.98619364
0.98487612
0.98654977
0.99140051
0.9995037
1.0090925
1.0210901
1.0350951
1.049916
1.0628773
1.073556
1.0821088
1.088501
1.09212
1.0937398
1.0953336
1.0976278
1.100182
1.1021452
1.1043508
1.1059037
1.1053325
1.1004135
1.0923854
1.0813966
1.0681104
1.0518655
1.0361336
1.0221805
1.0105539
0.9995686
0.99012368
0.98212726
0.97549322
0.96955151
0.96637117
0.96823135
0.97611121
0.98882511
1.0049385
1.023126
1.0408113
1.0552978
1.0651302
1.0721385
1.0776057000000001
1.0823726
1.0857254
1.089167
1.0921236
1.0940022
1.0929272
1.0918093
1.0920029
1.0943491
1.0970084
1.099909
1.1011036
1.0981684
1.088352
1.0725957
1.0534201
1.0334996
1.0144478
0.99813463
0.98618264
0.97814949
0.97249804
0.96810556
0.9664419
0.96805582
0.97299526
0.9798452
0.98941133
1.000324
1.0109852
1.0183664
1.0241658
1.0290409
1.0338892
1.0378157
1.0424108
1.0478646
1.0536078
1.0577284
1.0607065
1.0634584
1.0662759
1.0682088
1.0689892
1.068956
1.0671474
1.0620253
1.0526999
1.0409323
1.0276726
1.0137171
0.99897944
0.98599244
0.97522951
0.96672165
0.95858948
0.95296144
0.95020695
0.95067805
0.95315362
0.95914177
0.96889716
0.98182078
0.99567439
1.0099985
1.0244818
1.0383374
1.0500976
1.0596407
1.06814
1.0758218
1.0820621
1.0861083
1.0890687
1.0906924
1.0904045
1.0869763
1.0823002
1.0767626
1.0705554
1.0619173
1.0526658
1.0426345
1.0315992
1.0181047
1.0040088
0.9905613
0.97873167
0.96813871
0.96011834
0.95557731
0.95425459
0.95461624
0.95608743
0.95915547
0.96345629
0.96808267
0.97230581
0.97733578
0.9830895
0.9890149
0.99370203
0.99859186
1.0037543
1.0092604
1.0134856
1.0184552
1.024203
1.0303075
1.0345012
1.0371422
1.037637
1.0352254
1.0284229
1.0183503
1.0065794
0.99417799
0.98119211
0.9685263
0.95767933
0.94884613
0.94142661
0.9350156
0.93112424
0.92985465
0.93066066
0.93188734
0.93452494
0.93796566
0.94167953
0.94374072
0.94627937
0.94979553
0.95449567
0.95866158
0.96297562
0.96705776
0.97020337
0.97083239
0.96985071
0.96870944
0.96826777
0.96808648
0.96810205
0.96852335
0.96805504
0.96465421
0.95686816
0.94600694
0.9331144
0.91962576
0.90648342
0.8971351
0.89257372
0.89249584
0.89377269
0.89650887
0.89908465
0.90050531
0.89934868
0.89811246
0.89896269
0.90342454
0.91084786
0.92131484
0.93400717
0.94693164
0.9573333
0.96427075
0.96895133
0.97247539
0.97556868
0.97872077
0.98362131
0.98992179
0.99628693
1.0003557
1.0028482
1.0033942
1.001874
0.99660768
0.9896599
0.98134423
0.9719542
0.96053573
0.94923771
0.93955784
0.93251814
0.92755012
0.9254852
0.92674888
0.93078575
0.93602296
0.94201197
0.94952494
0.95836543
0.96743453
0.9754332
0.98308571
0.99024419
0.9969007
1.0025955
1.0099293
1.0194608
1.0304739
1.0390760000000001
1.0444114
1.0441765
1.0373642
1.0234704
1.0069487
0.99245642
0.98370575
0.98186262
0.98643662
0.99394907
0.99968503
0.99995215
0.99477549
0.9867887
0.97903015
0.97336466
0.96993621
0.96732433
0.96274642
0.95511867
0.94662212
0.94304264
0.94881793
0.96499215
0.98721579
1.0090821
1.0228654
1.0252608
1.0196308
1.0165387
1.0260753
1.0520908
1.0881479
1.1205843
1.1335755
1.1185375
1.0810402
1.041782
1.0269231
1.0536665
1.1184496
1.1936778
1.2351603
