1.0809047
1.0926757
1.1236734
1.1624828
1.1929138
1.2051261
1.1987463
1.1815789
1.1633838
1.1522727
1.1502032
1.1528006
1.1516138
1.1404527
1.1176846
1.0859716
1.0496351
1.0140363
0.98351962
0.95983722
0.94195907
0.92877396
0.92038804
0.91722287
0.91907605
0.92579614
0.93773349
0.95424783
0.97336819
0.99284066
1.0116084
1.0285255
1.0421937
1.0514639
1.056863
1.0587585
1.0565747
1.0495354
1.0384442
1.0232487
1.004058
0.98218208
0.96228834
0.94788899
0.94120731
0.94261579
0.95343762
0.97178533
0.99444726
1.0175135
1.040826
1.0633144
1.0842019
1.101915
1.1180744
1.1322187
1.1435297
1.1499329
1.1535894
1.1553517
1.1562082
1.1550494
1.1542018
1.1533522
1.1512938
1.1445991
1.1337171
1.1185564
1.1000077
1.0783873
1.0581208
1.0426221
1.0342044
1.0321351
1.0369715
1.0469582
1.0589596
1.0682946
1.0738554
1.0755331
1.0740105
1.0694596
1.0643572
1.060426
1.0574048
1.0525125
1.0440955
1.0311978
1.013238
0.99020505
0.96527679
0.94357668
0.92953912
0.92557991
0.93336413
0.95322103
0.98192538
1.0135469
1.0425719
1.0661246
1.0823087
1.0910153
1.0946483
1.0982155
1.1041714
1.111819
1.1179702
1.1203668
1.1158803
1.103301
1.0843675
1.0659913
1.0537718
1.0505511
1.054555
1.0635058
1.0719751
1.0753966
1.0713634
1.0643948
1.0591593
1.0592175
1.0634408
1.070751
1.0760343
1.0747193
1.0636141
1.0479131
1.033817
1.0274239
1.0301135
1.0423041
1.0591215
1.0742137
1.0815287
1.0816541
1.0777018
1.0740386
1.0724537
1.0745576
1.0780338
1.0785448
1.0711948
1.056619
1.0384334
1.0219804
1.0113655
1.0107995
1.0208334
1.0378546
1.0550225
1.0673934
1.0720582
1.0680847
1.0561905
1.0404688
1.0261488
1.0165708
1.0121911
1.0126861
1.017465
1.0244273
1.0309894
1.036105
1.0405868
1.0438335
1.0435917
1.0371772
1.0236475
1.0020081
0.97299417
0.94011141
0.91094961
0.89161195
0.8852826
0.89100296
0.90663164
0.92627938
0.94374254
0.95435385
0.95931003
0.96052845
0.96019453
0.95831574
0.95623704
0.95214156
0.94405124
0.93028503
0.91526046
0.90369822
0.90058935
0.90744418
0.92643529
0.95423585
0.984765
1.0094625
1.024788
1.028421
1.0210056
1.0041491
0.98413439
0.96606705
0.95350867
0.94671598
0.94708528
0.95392223
0.96539427
0.97808499
0.99130026
1.0040088
1.0144974
1.0195555
1.0182157
1.010136
0.99556825
0.97528797
0.95328186
0.93465786
0.92324939
0.92000221
0.92470114
0.93547377
0.94827848
0.9582124
0.96283372
0.96278071
0.95942405
0.95408928
0.94869397
0.94596346
0.94670841
0.95038459
0.95646104
0.96604715
0.9786604
0.99231939
1.0040823
1.0127995
1.016244
1.012778
1.0021204
0.98852226
0.97576944
0.96703525
0.96337413
0.96686877
0.97611655
0.98803008
0.99798519
1.0051632
1.0082205
1.0067772
0.99984187
0.99059177
0.98047461
0.97064227
0.96016039
0.95207987
0.94766498
0.94806521
0.95240019
0.96269291
0.97851983
0.99797055
1.0164197
1.0320461
1.0425526
1.046827
1.0442842
1.0389267
1.0349436
1.0356942
1.0415819
1.0533225
1.0693665
1.0865725
1.1005476
1.110087
1.1153344
1.1168012
1.1141384
1.1085952
1.1012638
1.0921094
1.0801406
1.0663845
1.0532893
1.0427557
1.0353565
1.0318921
1.0331941
1.0380812
1.0439164
1.0488725
1.0532125
1.0567312
1.05891
1.0596459
1.0603655
1.0607034
1.0590652
1.0535667
1.0447639
1.032593
1.0173316
0.99971395
0.98359816
0.97132813
0.96414663
0.96151472
0.96466897
0.97234393
0.98248793
0.9920144
1.0013315
1.0095108
1.0156107
1.0173393
1.016339
1.0128157
1.0075441
1.0001937
0.99516063
0.99479791
1.0005479
1.0107435
1.0257515
1.0430501
1.0593275
1.0700492
1.0750756
1.0745398
1.0694604
1.0599881
1.0494424
1.0400813
1.0331897
1.0279925
1.0259485
1.0276384
1.0324692
1.0377923
1.0426904
1.0459135
1.0456126
1.0392977
1.0273263
1.0115095
0.99375022
0.97532591
0.95900034
0.94793321
0.94366969
0.94574117
0.95367376
0.96706294
0.98348975
0.99890835
1.0098314
1.0147952
1.0123736
1.0019976
0.98517863
0.9665575
0.95003368
0.93838038
0.93313762
0.93643374
0.94748978
0.9638153
0.98205234
1.0015711
1.0206957
1.0378554
1.0511961
1.0620633
1.0701986000000001
1.0749488
1.0745948
1.0708818
1.0642264
1.0552463
1.0434538
1.0323769
1.0237619
1.0189444
1.0167413
1.0194311
1.0266093
1.0370937
1.0474401
1.0576539
1.0662902
1.0718952
1.0718048
1.0670854
1.0584609
1.0470502
1.0329779
1.0196002
1.0093737
1.0036304
1.0011893
1.0024443
1.0066706
1.0122873
1.0165686
1.0194349
1.0213323
1.0222212
1.0206997
1.0169227
1.0114394
1.0044581
0.9958013
0.98762772
0.98323594
0.98453842
0.99114591
1.002286
1.017086
1.0331015
1.0473603
1.0586141
1.067984
1.0756121
1.0803104
1.080429
1.0757248
1.065287
1.0491378
1.029382
1.0118868
1.001179
0.9994977
1.0058533
1.0190717
1.034836
1.0486034
1.0569057
1.0614
1.0637151
1.0652653
1.0652451
1.0644489
1.0611599
1.0539299
1.0415861
1.0287167
1.0194233
1.017293
1.0219862
1.0342954
1.0507034
1.0666118
1.0765222
1.0805153
1.0793859
1.0750374
1.067735
1.0600739
1.0522976
1.043557
1.0315748
1.0181747
1.0057171
0.99690528
0.9927653
0.99565526
1.0054421
1.0193376
1.0318901
1.0396993
1.0403396
1.032627
1.0163937
0.99517657
0.97383473
0.95624845
0.94398185
0.93846308
0.94029893
0.94815698
0.95936024
0.97249971
0.98735951
1.0025242
1.0152432
1.0231409
1.0253639
1.0208755
1.0096353
0.99408857
0.98012755
0.97265002
0.97446907
0.98574514
1.0058457
1.0303412
1.0532796
1.0690355
1.0764523
1.075024
1.0655216
1.0488784
1.0292512
1.0089416
0.98960623
0.97157669
0.95847079
0.95193422
0.95264182
0.95863209
0.97025966
0.98508418
1.0001386
1.0109492
1.0177215
1.019723
1.0168822
1.008002
0.99574689
0.98178943
0.96805421
0.95535223
0.94757526
0.94700081
0.95436152
0.96734433
0.98470026
1.0033127
1.0195286
1.0293483
1.0327344
1.0308571
1.0255968
1.0181226
1.0115866
1.0084915
1.0098354
1.0144803
1.0225514
1.0340313
1.0475525
1.0600703
1.0696736
1.0750533
1.0742814
1.0652932
1.0485175
1.0270907
1.0043146
0.9829801
0.96605074
0.95672681
0.95521547
0.95899136
0.96446385
0.96948539
0.97105671
0.96663714
0.95515361
0.93908007
0.92040136
0.90073645
0.88088633
0.86344389
0.84871837
0.83601656
0.82394762
0.81489218
0.81100119
0.81520502
0.82951109
0.85790723
0.89987079
0.9509795
1.0022064
1.0464692
1.0762156
1.0876624
1.0806047
1.0633603
1.0447856
1.0327134
1.0296106
1.0370147
1.0513478
1.0676472
1.0805755
1.0908556
1.1000954
1.1097361
1.1178851
1.1230115
1.1213211
1.1093911
1.0855287
1.0549367
1.0257288
1.0057695
0.99852834
1.004743
1.0205223
1.0388963
1.0524314
1.0585421
1.0586327
1.0553839
1.0499925
1.0426879
1.032069
1.0150789
0.98917859
0.95599666
0.92166965
0.89307507
0.87513426
0.87020125
0.87828492
0.89546841
0.91631609
0.93704119
0.95772909
0.97859045
0.99916071
1.0177433
1.0333336
1.0429913
1.044286
1.0369787
1.0264809
1.0186124
1.0185822
1.0284747
1.0498037
1.0785798
1.1079628
1.1295971
1.1403559
1.1384613
1.1252766
1.1031585
1.0791624
1.0578677
1.0418256
1.0293829
1.0215461
1.0170078
1.0151251
1.0146987
1.0192122
1.0302351
1.0473383
1.0658758
1.0823001
1.0913336
1.0889064
1.072815
1.0475249
1.0197736
0.99650418
0.98139879
0.97711011
0.98252644
0.99393426
1.006267
1.0180865
1.0298184
1.0423183
1.0548958
1.0672796
1.0779103
1.0837505
1.0814868
1.0715061
1.0575154
1.0440142
1.0344859
1.0320645
1.0385464
1.0520935
1.0682598
1.0830803
1.0949125
1.1021311
1.1034971
1.0989515
1.0906844
1.0796309
1.0660055
1.0501239
1.0348853
1.0220304
1.0126214
1.0067676
1.0062885
1.0101985
1.0158153
1.0189383
1.0185223
1.0128019
1.0012929
0.98422525
0.96652322
0.95197816
0.94354831
0.94122903
0.94681256
0.95884816
0.97503389
0.99136139
1.0085257
1.0261336
1.0441165
1.0605434
1.0764965
1.0907127
1.1012538
1.1047295
1.102063
1.0943545
1.0835852
1.0707742
1.0600065
1.0537912
1.0528833
1.055114
1.0601188
1.0666697
1.0730467
1.0766694
1.0779752
1.0779272
1.0769884
1.0742125
1.0701864
1.0655105
1.0597285
1.0512827
1.040515
1.0291801
1.0187309
1.0098936
1.0041246
1.0028788
1.0051065
1.0074738
1.0066656
1.0013208
0.99065324
0.97537428
0.95862866
0.94647289
0.94315864
0.95016058
0.96610634
0.98927937
1.0152896
1.0395154
1.0586365
1.0739535
1.08657
1.0972206
1.1048446
1.1101821
1.1114249
1.1066706
1.0942593
1.0781189
1.0621007
1.050255
1.0439538
1.0459716
1.0544524
1.0652605
1.0714963
1.0713075
1.0628664
1.0467061
1.0237421
0.99993781
0.97990135
0.96719197
0.96226108
0.96693092
0.98008887
0.99881235
1.0177432
1.0343093
1.0457785
1.0501317
1.0453882
1.0336568
1.0179647
1.0015599
0.98664291
0.97719028
0.97641621
0.98573986
1.0038593
1.0296473
1.0605857
1.0918892
1.1168706
1.1309387
1.1321538
1.1205809
1.0985652
1.0722902
1.0499799
1.037503
1.0366281
1.0458398
1.0615474
1.0770516
1.0851395
1.081314
1.0663682
1.0430386
1.0154851
0.98841722
0.96780204
0.95652242
0.95503979
0.96185415
0.97660825
0.9965252
1.0175243
1.0342711
1.0444633
1.0453139
1.035697
1.0159464
0.99222609
0.97050533
0.95650309
0.9528327
0.96261972
0.98388876
1.0117369
1.0380435
1.0588513
1.0702273
1.0708744
1.0604807
1.0448313
1.0290706
1.0176887
1.0117908
1.0137705
1.0224356000000001
1.0344257
1.0439876
1.0487528
1.0469038
1.037967
1.0217527
1.0019074
0.98199673
0.96460858
0.95013103
0.94032942
0.93631483
0.93813767
0.94441031
0.95527806
0.9707599
0.98922846
1.0069266
1.0208284
1.0285655
1.0277254
1.0166471
0.99703277
0.97372702
0.95188121
0.93586858
0.92954409
0.93593998
0.95419153
0.98007861
1.0082108
1.0350376
1.0570477
1.0721069
1.0801031
1.0843946
1.0867389
1.0870613
1.0833453
1.0752135
1.0612789
1.041529
1.0176983
0.99641278
0.98298037
0.98056136
0.98785111
1.0035711
1.0225181
1.0391223
1.0480442
1.0504303
1.0479534
1.0429338
1.0349974
1.0260811
1.0152071
1.0014729
0.98374304
0.96660717
0.95448728
0.95117475
0.9565808
0.97094664
0.99085585
1.0116618
1.0282214
1.0404678
1.0497947
1.0580348
1.0648618
1.0705712
1.0733812
1.0705076
1.0590098
1.0406982
1.0198331
1.0012821
0.98816603
0.98368004
0.98892212
1.0021239
1.0194505
1.0387525
1.0592452
1.0795619
1.0971407
1.109907
1.1165029
1.1151631
1.1048159
1.0873039
1.0677077
1.0504627
1.0381301
1.0315006
1.0310139
1.0344207
1.0386879
1.0416933
1.0446893
1.047963
1.0505852
1.0499802
1.0451234
1.0340404
1.0163026
0.99361661
0.97306001
0.96070367
0.9604137
0.97125221
0.99182879
1.0165897
1.0397378
1.0560963
1.0670704
1.0741753
1.0788214
1.0790017
1.0743937
1.0620728
1.0404602
1.0096621
0.97709147
0.95071754
0.9372949
0.93802316
0.9525247
0.97525483
0.99914873
1.0174165
1.0300028
1.0391872
1.0477539
1.0554926
1.061803
1.0633137
1.0560718
1.0375118
1.0116102
0.98595389
0.96841773
0.96325904
0.97196759
0.99151816
1.0151261
1.0349829
1.0473477
1.0525894
1.0525523
1.0485059
1.041305
1.0308309
1.0152828
0.99323311
0.96666253
0.94139061
0.92323993
0.91601909
0.92083322
0.93687992
0.95944109
0.98249001
1.0013823
1.0162689
1.0277453
1.0362286
1.0406847
1.0416301
1.037484
1.0268879
1.0094821
0.99054386
0.97506752
0.96725003
0.96778624
0.97793662
0.9944608
1.0125394
1.0260626
1.0344681
1.0371466
1.0345238
1.0253586
1.0115506
0.99254836
0.96767757
0.93554894
0.89969658
0.86355203
0.83098725
0.8040495
0.78697582
0.78165167
0.78871844
0.80678813
0.83694939
0.87873662
0.92982552
0.98477691
1.0394331
1.0894235
1.1314377
1.1634287
1.1880472
1.2091643
1.2291993
1.2469432
1.2604347
1.2667359
1.263014
1.2483086
1.2266924
1.2051293
1.1891967
1.1802472
1.1759988
1.1712509
1.1586063
1.1319718
1.0907121
1.0407607
0.99022756
0.94652147
0.91449604
0.89637552
0.88918816
0.88751081
0.88672143
0.8869623
0.8898295
0.8978103
0.91236151
0.93509033
0.96350167
0.99257155
1.016048
1.0318128
1.039082
1.0395093
1.0354138
1.0325376
1.033624
1.0387236
1.0437808
1.0469027
1.0440875
1.0326876
1.010716
0.98333114
0.95541082
0.93205673
0.91532851
0.90886564
0.91194004
0.92172353
0.93316869
0.94532551
0.95712544
0.96821562
0.97716924
0.98555004
0.99353031
1.000379
1.0039652
1.005191
1.0053018
1.0054168
1.0052813
1.0062188
1.0089878
1.0131862
1.01698
1.0203118
1.0237368
1.027154
1.0292465
1.0299531
1.0298696
1.0288873
1.0262924
1.0228787
1.0205444
1.0196856
1.0189598
1.0168596
1.0126914
1.0048691
0.99207782
0.9749183
0.95711806
0.94178514
0.93098228
0.92551765
0.92677565
0.93358494
0.94385033
0.95562345
0.96802302
0.97971465
0.98993429
0.99880819
1.007943
1.0175897
1.0271108
1.0349385
1.0403993
1.0419529
1.0393505
1.0338816
1.0295172
1.0282052
1.029549
1.0299792
1.0264844
1.0158501
0.99860473
0.97928091
0.96644934
0.96499386
0.97315959
0.98135306
0.97815901
0.95465124
0.91256992
0.86672623
0.84218438
0.86000517
0.9248017
1.0167784
1.0962877
1.1150884
