0.84705738
0.85428783
0.89718882
0.9522705
0.99468169
1.0129588
1.0106861
1.001071
0.99722272
1.0062806
1.0254913
1.0455853
1.0575356
1.0588857
1.0529757
1.0455016
1.0413473
1.0426392
1.0473009
1.0504944
1.0490583
1.0432456
1.0354767
1.027815
1.0225691
1.0206236
1.0209332
1.0201809
1.0167839
1.0099703
0.99982417
0.98576998
0.96996594
0.95445155
0.94084309
0.92879996
0.92029998
0.91497081
0.91162279
0.9086711
0.9075879
0.90866264
0.91135911
0.91485877
0.91994735
0.92605576
0.93207755
0.93832618
0.94685807
0.95843851
0.97199166
0.98684184
1.0020274
1.0153599
1.0239406
1.0282155
1.0298169
1.0302407
1.0293325
1.0290897
1.0300162
1.0314943
1.0311106
1.0303335
1.0296464
1.0291638
1.0267031
1.0239142
1.0203786
1.0156636000000001
1.0086688
1.0023195
0.99763057
0.99421079
0.98989279
0.98455587
0.97663954
0.96486326
0.94951846
0.93425711
0.92153859
0.91173755
0.90414879
0.89808861
0.89141823
0.88187002
0.87045487
0.86070479
0.85575942
0.85646074
0.8637444
0.87661374
0.89220546
0.9063987
0.9191353
0.93122507
0.94377308
0.95605222
0.96974029
0.98406736
0.99730958
1.0062497
1.0125463
1.0169749
1.0205651
1.0230863
1.0270102
1.0321633
1.0371682
1.0399563
1.0416947
1.0424742
1.0419855
1.040091
1.0386193
1.0376435
1.0359484
1.0330112
1.0299719
1.0270177
1.023272
1.0191601
1.0156443
1.0122793
1.0068402
0.9990141
0.98901244
0.97699252
0.96237336
0.94779376
0.93557046
0.92695356
0.92039166
0.91640974
0.91351704
0.90973401
0.90192079
0.89235258
0.88309407
0.87706745
0.87621263
0.88481798
0.90338954
0.9294335
0.95791329
0.98552312
1.0079089
1.021805
1.0266005
1.025829
1.0228406
1.0199685
1.0192063
1.0221325
1.0276629
1.0328439
1.0364422
1.038753
1.0399273
1.03919
1.0379463
1.0372763
1.0369409
1.0348105
1.0316774
1.0280735
1.0243089
1.0190929
1.0145206
1.0111154
1.0085842
1.004302
0.99951647
0.99370544
0.9862512
0.97561205
0.96402448
0.95232267
0.94080771
0.92890409
0.91833538
0.90887635
0.89916368
0.88783069
0.87600097
0.86422764
0.85298177
0.84425274
0.84168017
0.84730175
0.8609756
0.8825267
0.91081158
0.94232405
0.97157631
0.99547475
1.01214
1.0207832
1.0211533
1.0172331
1.0128585
1.010751
1.0106239
1.014044
1.0200147
1.0266374
1.0303305
1.0324722
1.0333229
1.0333014
1.0315966
1.0305312
1.0301659
1.0296543
1.0275196
1.0253278
1.0232558
1.0206772
1.0167549
1.0124474
1.0070837
0.99902788
0.98771889
0.97471854
0.96105717
0.94690907
0.9336524
0.92304602
0.91526017
0.90844825
0.90224774
0.89640196
0.89023634
0.88215932
0.87407689
0.86813253
0.86643456
0.86936371
0.87989969
0.89824677
0.92245494
0.94723253
0.9705707
0.98903019
1.0004001
1.0034706
1.0022811
1.0001204
0.99950011
1.001166
1.0068494
1.0151834
1.0233033
1.0287194
1.031994
1.0333366
1.0326858
1.0309388
1.0300803
1.0302422
1.0298091
1.0284462
1.0267597
1.0246515
1.0208553
1.0162357
1.0115897
1.0065931
0.9990787
0.989602
0.97858505
0.96648358
0.95259954
0.93987499
0.93001387
0.9237708
0.91909284
0.91688836
0.91579003
0.91413297
0.90965955
0.90439688
0.89971264
0.89702679
0.89719242
0.90285628
0.91393894
0.92849892
0.94401062
0.95949401
0.97304924
0.98277198
0.988631
0.99262555
0.99601529
0.99883102
1.0021774
1.007258
1.0136651
1.0191491
1.0236219
1.0273177
1.0299986
1.0301416
1.0292849
1.0283714
1.0276299
1.0253054
1.0230942
1.0213441
1.019949
1.0166959
1.0134015
1.0098341
1.0052673
0.9975526
0.9879199
0.97581513
0.96003013
0.93877106
0.9134174
0.88457396
0.85304571
0.82059731
0.79169119
0.76944126
0.75533946
0.75062517
0.75710388
0.77480884
0.80213808
0.83829652
0.88213669
0.92994477
0.97511221
1.012417
1.0375756
1.0482078
1.0442375
1.0319197
1.0187827
1.0111854
1.0109446
1.0193172
1.0329265
1.0466573
1.0544779
1.056937
1.0553263
1.0521476
1.0485364
1.0477495
1.0494398
1.0514619
1.0509556
1.0487173
1.0450319
1.0401179
1.0343241
1.0297137
1.026353
1.0229192
1.0186837
1.0145742
1.0105165
1.0051874
0.99821034
0.98996373
0.98015878
0.96767651
0.95390457
0.94100551
0.93054415
0.92202719
0.91675879
0.91451447
0.91386242
0.91160533
0.90867337
0.90575864
0.90432431
0.90470415
0.91103068
0.92437744
0.9436624
0.96482304
0.9859888
1.0035528
1.0146746
1.0181475
1.0174605
1.0156467
1.0148467
1.0161499
1.0209947
1.027938
1.0339132
1.0370633
1.0380422
1.0373199
1.0347433
1.0316405
1.0296405
1.0287296
1.027052
1.0248939
1.0228379
1.0208092
1.0170636
1.0124764
1.0071477
1.0005437
0.99056686
0.97897949
0.96680946
0.95494254
0.94222225
0.93118912
0.92218922
0.91492179
0.90764132
0.90186853
0.89740353
0.89343301
0.88863483
0.8847855
0.88279018
0.88348139
0.88815075
0.89971512
0.91842981
0.94181066
0.96653076
0.98980969
1.0081743
1.018735
1.0223448
1.0224081
1.0221385
1.0228761
1.0265399
1.0332309
1.0409861
1.046067
1.0483215
1.0482405
1.0468468
1.043831
1.0420779
1.0422571
1.0436329
1.0428777
1.0408153
1.0369823
1.0315031
1.023997
1.0177332
1.0136807
1.0110902
1.0074093
1.0022878
0.99427178
0.9823903
0.96723373
0.95254767
0.94070181
0.93187037
0.92512696
0.91965414
0.9133599
0.90412449
0.89304471
0.8835087
0.87824741
0.87752493
0.88183782
0.89013959
0.90021678
0.90932841
0.91907351
0.93147509
0.94770552
0.96566258
0.98455842
1.0010051
1.0116774
1.0135361
1.0103011
1.0057299
1.0034562
1.0043171
1.0100347
1.0183109
1.0254551
1.0280523
1.0273698
1.0247931
1.0216481
1.018869
1.0183075
1.0191385
1.0189637
1.016498
1.01287
1.0088244
1.0041351
0.99952243
0.99568807
0.99158878
0.98452504
0.97426844
0.96170747
0.9479883
0.93333666
0.92063748
0.9116888
0.90670822
0.90312782
0.90104525
0.89944048
0.89761437
0.89399304
0.89185915
0.89300516
0.89849979
0.90722222
0.92019968
0.93574855
0.95133462
0.96433517
0.97569134
0.98566353
0.9942649
1.0016418
1.0094939
1.0175691
1.0243258
1.0290665
1.0327397
1.0354836
1.0365098
1.0365857
1.0371053
1.0382079
1.0383665
1.0381129
1.0380644
1.0380407
1.0362302
1.0337211
1.0310702
1.0282482
1.0233853
1.0180627
1.0126179
1.0069586
0.99895518
0.99053846
0.98187262
0.97285403
0.96217974
0.95211866
0.94340619
0.93620238
0.92979803
0.92581384
0.92377326
0.9218436
0.91800273
0.91269699
0.90597197
0.89819066
0.89159892
0.89022911
0.89630264
0.90937071
0.92855844
0.95210271
0.97657299
0.99763933
1.0143817
1.027375
1.0374898
1.0444284
1.0503386
1.0560106
1.0610601
1.0632017
1.0639266
1.0638762
1.0636416
1.0618292
1.0609123
1.0608875
1.0609935
1.0590625
1.0567127
1.0541015
1.0510453
1.0467525
1.0431347
1.0401578
1.0365962
1.0309923
1.0240683
1.0153762
1.0038195
0.98947272
0.97442627
0.95995791
0.94622682
0.93452447
0.92648834
0.92211652
0.9193554
0.91777076
0.91711939
0.91682011
0.91535514
0.91457504
0.91607425
0.92079615
0.92750094
0.93770539
0.95092345
0.96586787
0.97933212
0.99243219
1.0046953
1.0156942
1.0241116
1.0320579
1.0397047
1.0464799
1.0511997
1.0554356
1.0591775
1.0616915
1.0624509
1.0631222
1.0638811
1.06381
1.0627399
1.0619357
1.0613662
1.0597436
1.0572436
1.0548199
1.0523877
1.0484143
1.0433893
1.0378475
1.0314606
1.0223126
1.0113365
0.99926777
0.98667319
0.972698
0.95991723
0.9495147
0.9417883
0.93446842
0.92869726
0.92362031
0.91830572
0.91122437
0.90495496
0.90091687
0.90010132
0.90260952
0.91046832
0.92322506
0.93890989
0.95528545
0.97201558
0.98753723
0.99971872
1.0077808
1.0127982
1.0151308000000001
1.0144137
1.0121184
1.0104504
1.0103077
1.0106441
1.0120743
1.0148069
1.0180075
1.019273
1.0194291
1.0190006
1.0181242
1.0151839
1.0120875
1.0093488
1.007037
1.0032134
1.0000167
0.99747403
0.99494603
0.99020077
0.98427397
0.97664092
0.9666496
0.95364358
0.94026192
0.92789162
0.91697811
0.90747314
0.90074613
0.8963995
0.89296729
0.88997047
0.88881996
0.89024017
0.89400548
0.90112823
0.91279438
0.92857782
0.94616792
0.96492927
0.98399742
1.0016953
1.0150663
1.0242937
1.0295859
1.031399
1.0292924
1.0265463
1.0249622
1.0252535
1.0252829
1.0261905
1.0269023
1.0263349
1.0229187
1.0192455
1.0163667
1.0143704
1.011988
1.0100425
1.0075514
1.0031603
0.99641768
0.98974302
0.98435178
0.97991142
0.97573241
0.97156547
0.96564379
0.95558037
0.94156533
0.92600697
0.91138725
0.89896327
0.89098548
0.88825112
0.88929933
0.89041495
0.89039194
0.8884193
0.8847578
0.87976512
0.87767282
0.88114922
0.89122024
0.90543935
0.923438
0.94209174
0.95819496
0.96859673
0.97523097
0.97948563
0.98252466
0.98444071
0.98724463
0.99063955
0.99341648
0.99485848
0.99686816
0.99979531
1.0021892
1.0024413
1.0001264
0.99429236
0.98435452
0.97287741
0.96388404
0.9591747
0.95639672
0.95253016
0.9434143
0.92523157
0.89580503
0.85960049
0.82311372
0.79210435
0.76791362
0.75186706
0.74203799
0.7365233
0.73395441
0.73977256
0.75856314
0.79238459000000006
0.83734024
0.88798739
0.93470254
0.9686659
0.98531189
0.98892021
0.98676383
0.98632862
0.99246813
1.007206
1.0268824
1.0450624
1.0572379
1.0632521
1.0649063
1.0645053
1.0653723
1.0696447
1.0764856
1.0826439
1.0871187
1.0899368
1.0913576
1.0905051
1.089082
1.0877421
1.086187
1.0823277
1.0778195
1.0734738
1.0697617
1.0649349
1.060617
1.0565518
1.0522014
1.0459849
1.0397442
1.0338091
1.0274784
1.0186854
1.007663
0.99349297
0.97530622
0.95345175
0.93149046
0.91199248
0.89606459
0.88445511
0.87808384
0.87565227
0.87432523
0.87321938
0.87315684
0.87491723
0.87851846
0.88619515
0.89961677
0.91869816
0.94085831
0.96549033
0.99076479
1.0141797
1.0320382
1.0446282
1.0517883
1.0540427
1.0512056
1.0473864
1.0446248
1.0439623
1.0444198
1.0473222
1.0515639
1.0553099
1.0564999
1.0567219
1.0563867
1.0552069
1.0527504
1.0504369
1.0480897
1.0446833
1.0403144
1.0367822
1.0343135
1.0310819
1.0258243
1.0180053
1.0069363
0.99197592
0.97578536
0.96142583
0.94985875
0.93812085
0.92404119
0.90489691
0.87953198
0.84839189
0.81816043
0.79472516
0.78101559
0.77369734
0.77024047
0.76601441
0.75975046
0.75469753
0.76193072
0.79042649
0.84280718
0.91200917
0.98551252
1.046137
1.0800188
1.0831154
1.0643273
1.0381884
1.0185759
1.0142323
1.0264248
1.0478213
1.0672741
1.0777676
1.0786488
1.0734604
1.0665784
1.0633085
1.0656093
1.0713238
1.0752919
1.0761419
1.0741226
1.0707899
1.0663971
1.0636466
1.0623565
1.0606893
1.0546789
1.0452018
1.0327335
1.0184844
1.0027402
0.98867022
0.97729329
0.96844896
0.96089395
0.95581672
0.95305407
0.95165081
0.95055407
0.9507003
0.95191038
0.95322341
0.95468471
0.95773429
0.96247414
0.96772917
0.97363404
0.98084078
0.98894852
0.99626295
1.0032631
1.0104255
1.0174808
1.0227478
1.0273486
1.0316824
1.0355501
1.0371432
1.0380926
1.0387429
1.0391621
1.0377015
1.0366823
1.0362825
1.0361052
1.0344646
1.0327904
1.0307574
1.0276999
1.0227741
1.0179459
1.0135242
1.0086765
1.0022181
0.99483967
0.98588236
0.97408005
0.95945511000000006
0.94395103
0.92865171
0.91347792
0.89948924
0.88811358
0.87945318
0.8720082
0.86616767
0.86232154
0.86009755
0.85766374
0.8559586
0.85535319
0.85569014
0.85517469
0.85551396
0.85721921
0.86043585
0.86316566
0.86692508
0.87041395
0.87128563
0.86601183
0.85585994
0.84265314
0.83034224
0.82408014
0.83155851
0.85576118
0.89381096
0.93775534
0.97881209
1.0072957
1.0166905
1.0075221
0.98755898
0.9661163
0.95012332
0.94370149
0.94659776
0.95379548
0.95804834
0.95621319
0.94881339
0.93863392
0.92807445
0.92125962
0.91971312
0.92234187
0.92534047
0.92844826
0.9314632
0.93496536
0.93815376
0.9436371
0.95153949
0.96096748
0.96962175
0.97854559
0.98768513
0.99680757
1.0051728
1.0142996
1.0239518
1.0329295
1.0400104
1.0459937
1.0506964
1.0532311
1.0535801
1.0532563
1.0527514
1.0512814
1.0493811
1.0481354
1.0473536
1.0452626
1.0422109
1.0388518
1.0352692
1.0301051
1.0248987
1.0206125
1.0174255
1.0134161
1.0097412
1.006127
1.0018582
0.99442803
0.98553128
0.97537818
0.96414359
0.95101005
0.9385294
0.9275539
0.9182659
0.91012036
0.90466104
0.90160765
0.8998076
0.89838982
0.89860459
0.90086346
0.90513918
0.91241265
0.92456258
0.94154103
0.96122014
0.98203317
1.0024563
1.0200868
1.0318961
1.0384058
1.0415429
1.0432304
1.0437403
1.0454457
1.0487883
1.052384
1.0524196
1.0489843
1.0418772
1.0318009
1.0184002
1.0059738
0.99628215
0.989449
0.98263844
0.97528677
0.96426614
0.9461266
0.91823671
0.88345231
0.84589944
0.81100513
0.78448481
0.77219193
0.77444959
0.78578242
0.79809977
0.8048622
0.80213613
0.7909641
0.77965174
0.78006433
0.80091909
0.8429879
0.90083403
0.96281897
1.0150298
1.0468003
1.0563578
1.0484719
1.0325729
1.0185519
1.0151623
1.024336
1.0423366
1.0617198
1.0771909
1.0848271
1.0850374
1.0820209
1.0826451
1.0899648
1.1020862
1.1130877
1.1169067
1.1096638
1.0938203
1.0785474
1.0747767
1.0868725
1.1088037
1.1265095
1.1247286
1.0964285
1.0500822
1.0090653
0.99897744
1.0312684
1.09167
1.1419516
1.132544
