0.95653161
0.96155082
0.9937739
1.0198777
1.0141933
0.97418906
0.91766774
0.86934771
0.84682995
0.85213799
0.87259302
0.88959062
0.89188311
0.87942503
0.8605753
0.84406913
0.83598638
0.83557036
0.8379805
0.83864225
0.8384774
0.84160154
0.85174691
0.86968436
0.89331783
0.91770171
0.93720801
0.94987958
0.95770359
0.96426583
0.97143066
0.9810125
0.99294228
1.0059438
1.0177583
1.029985
1.0424495
1.0533093
1.059712
1.0600453
1.0515638
1.0320661
1.0039463
0.97324964
0.94654794
0.92814177
0.92230062
0.92863801
0.9422586
0.95402145
0.9589685
0.95309065
0.93615499
0.91164264
0.8885941
0.8748855
0.87510591
0.89011019
0.91742701
0.94994678
0.97815052
0.99579865
1.0004643
0.99327728
0.97726881
0.9604309
0.94930904
0.94764324
0.95459195
0.96996115
0.98992336
1.0096175
1.0250048
1.0360956
1.0429157
1.0452481
1.0442494
1.0418641
1.0384454
1.0326959
1.025931
1.0193269
1.0132918
1.0062271
0.9996718
0.99338703
0.98649291
0.9771799
0.96699393
0.95573369
0.94216168
0.92528718
0.90676152
0.888282
0.87200759
0.86249067
0.86431833
0.87858689
0.90095659
0.92646512
0.94801168
0.9592875
0.9559004
0.94247778
0.92545093
0.91189726
0.90656481
0.91301789
0.92905813
0.94859286
0.96551193
0.97650553
0.97941853
0.97313335
0.9603842
0.94490404
0.92959819
0.91535358
0.90592068
0.90319073
0.90750734
0.91657759
0.93050625
0.94654164
0.96084283
0.96978819
0.97321997
0.97093541
0.963194
0.95263851
0.94373105
0.93987173
0.94215517
0.95213329
0.96873902
0.98770828
1.0012712
1.0052841
0.99633722
0.97421072
0.94177348
0.90836304
0.88240787
0.86961266
0.87197981
0.88905537
0.91555016
0.94338319
0.96657865
0.9818992
0.98758673
0.98237282
0.96930458
0.95174127
0.93316065
0.91558931
0.90463531
0.90269134
0.90922349
0.92036347
0.93297595
0.94208529
0.943408
0.93634725
0.92492801
0.9139322
0.90691284
0.90761253
0.91723612
0.93366806
0.95187451
0.96972136
0.98494895
0.99611549
1.0016156
1.0041117
1.0046608
1.0035216
1.000626
0.9981694
0.99684144
0.99622189
0.99652426
0.99820949
0.99974229
0.99750495
0.99009086
0.97694252
0.95893208
0.93753139
0.91912664
0.90815509
0.90621115
0.91064934
0.91933822
0.92764736
0.93147818
0.92959799
0.92496373
0.91999407
0.91469934
0.90828879
0.89885347
0.88378051
0.86149017
0.83645478
0.81520854
0.80413543
0.80563282
0.82146742
0.84735758
0.8759759
0.89957844
0.91507652
0.92095643
0.91754981
0.90730676
0.89380713
0.87842875
0.86049465
0.84137892
0.82368959
0.81078816
0.80527445
0.81231434
0.83312564
0.86410238
0.89607852
0.92209423
0.93506631
0.93196841
0.91543531
0.89515296
0.88008531
0.87458081
0.87814386
0.88608699
0.89023192
0.8826018
0.86254207
0.83463802
0.80586312
0.78095052
0.76498532
0.75765101
0.75544485
0.75362389
0.75189103
0.75059224
0.75047536
0.7521872
0.75686495
0.76340716
0.76974968
0.77650397
0.78642529
0.80244166
0.82585796
0.85869591
0.89978401
0.94504063
0.98740925
1.0238141
1.0513787
1.069268
1.0783508
1.0834445
1.087743
1.0921356
1.0964234
1.1007309
1.1037948
1.1036712
1.1012453
1.0979201
1.0931863
1.0829677
1.0650692
1.0368814
0.99808246
0.95109757
0.90504585
0.86819188
0.84535054
0.83574319
0.83537867
0.83610726
0.82969199
0.81297725
0.78929548
0.76510822
0.74655548
0.73978674
0.74716362
0.76687639
0.79320488
0.82346302
0.85427861
0.88245408
0.90415251
0.91960861
0.92864571
0.93225735
0.9338973
0.94027679
0.95568177
0.9799827
1.0104997
1.0414979
1.0646772
1.0715648
1.0606999
1.0346686
0.99940195
0.96078238
0.92829508
0.9068361
0.89744436
0.89753382
0.9054266
0.91675969
0.92611867
0.92966646
0.92734295
0.92025234
0.91020109
0.90214423
0.90132783
0.9105131
0.92815099
0.95288177
0.98080998
1.0073194
1.0273961
1.0414513
1.049905
1.0531102
1.050874
1.0450969
1.0362521
1.0243805
1.0114258
1.0006514
0.99335885
0.98754164
0.9816358
0.97300237
0.95930833
0.93900208
0.9178066
0.90214099
0.89807137
0.90853731
0.9364257
0.97922885
1.0309068
1.0842887
1.1341002
1.1740249
1.1970454
1.1989744
1.1790692
1.1397887
1.0869196
1.0328909
0.99064862
0.96991322
0.97261491
0.99728137
1.034523
1.0715353
1.0959877
1.1026494
1.0901032
1.0608084
1.0210602
0.97970739
0.94375762
0.91746616
0.90496161
0.90784237
0.92401719
0.94729443
0.97295507
0.99520677
1.009627
1.0136985
1.01186
1.0090735
1.0098671
1.016698
1.031091
1.0498621
1.0665372
1.0754775
1.0736591
1.0597293
1.0339245
1.0016511
0.96907518
0.94136963
0.92069147
0.91091364
0.9120215
0.92161813
0.93522415
0.95088519
0.96491654
0.9730789
0.97209467
0.96163292
0.94146488
0.91205737
0.87741269
0.84330775
0.81462901
0.79373104
0.78391042
0.7857666
0.79755699
0.81451412
0.83551504
0.85772843
0.87822122
0.89411717
0.90621311
0.914688
0.91976387
0.9229594
0.92696862
0.93189333
0.93460761
0.93268034
0.92377006
0.90631342
0.88006185
0.85108812
0.82596201
0.81019869
0.80541546
0.81308315
0.82966808
0.84923484
0.86592407
0.87798122
0.88465503
0.88610667
0.88471206
0.8840793
0.88610224
0.89032538
0.8979492
0.90941083
0.9238443
0.93788595
0.95113658
0.96153289
0.96655105
0.9633113
0.95370558
0.94016502
0.9260887
0.9156476
0.91375563
0.92124817
0.93420579
0.94731964
0.95512419
0.95301976
0.9386013
0.91643432
0.89315301
0.87483858
0.86319033
0.86039785
0.86407574
0.87059478
0.87700154
0.8852851
0.89752166
0.91451073
0.93561334
0.95933381
0.98163408
0.99765884
1.00674
1.0113875
1.0152272
1.0201956
1.0294625
1.0423637
1.0551881
1.0616086
1.0598722
1.04859
1.0282333
1.0011411
0.97328191
0.94904353
0.93077164
0.92033921
0.91896234
0.9253517
0.93588956
0.94881822
0.96223722
0.97401555
0.98089947
0.98398026
0.98364902
0.98050488
0.97474624
0.97022711
0.96915221
0.97219855
0.97893471
0.98943729
1.0012714
1.0101531
1.0137111
1.0116455
1.004393
0.99234971
0.98012624
0.97220176
0.97204142
0.97974396
0.9971704
1.0212451
1.0456147
1.061886
1.0653412
1.052406
1.022814
0.9814012
0.937434
0.89905904
0.87078788
0.8554724
0.85286737
0.8600366
0.87239058
0.88929752
0.90993954
0.93292101
0.95450944
0.97360708
0.98726106
0.99327331
0.99196502
0.98917304
0.99070289
1.0003036
1.0195496
1.0466455
1.0746539
1.0933767
1.0965628
1.0820056
1.0523619
1.0132928
0.97660846
0.95150181
0.94259713
0.94814626
0.96508605
0.986381
1.004705
1.0157113
1.0203858
1.0202382
1.0153982
1.0061279
0.9917359
0.97003796
0.93885906
0.90226078
0.86738467
0.84276939
0.83411782
0.8474745
0.88178741
0.93025884
0.98201589
1.0284911
1.0615935
1.0761636
1.0722718
1.0554781
1.0325557
1.0094347
0.99256903
0.98555076
0.98740972
0.99231082
0.99648418
0.99585033
0.98862374
0.97516956
0.96267044
0.95706543
0.96180136
0.9766746
1.0003563
1.0279482
1.0533846
1.0733803
1.0878447
1.0967741
1.0986257
1.0940122
1.08346
1.0680152
1.0489619
1.0328287
1.0242576
1.0245558
1.0298154
1.0359045
1.0364028
1.0265695
1.0064512
0.98242253
0.96124931
0.94676254
0.94042613
0.94031478
0.94186564
0.94051086
0.93802645
0.93848162
0.94583516
0.95951922
0.97883887
0.99753758
1.0080415
1.0049681
0.99100831
0.9724814
0.95757699
0.95429118
0.96789025
0.99622248
1.030002
1.059371
1.0758459
1.0743777
1.0539637
1.0229162
0.99135617
0.96833094
0.95784719
0.96248866
0.97804278
0.99680101
1.0108168
1.0164466
1.0114666
0.99531596
0.97056945
0.94199903
0.91402719
0.89021976
0.87619624
0.87579923
0.88926496
0.9115255
0.93772433
0.96049038
0.97366212
0.97414844
0.9665605
0.95713205
0.95197496
0.95568393
0.97155501
0.9986356
1.0331393
1.0722074
1.113144
1.1512982
1.1790338
1.1906945
1.1810582
1.1481205
1.0936394
1.0289638
0.96617444
0.91565748
0.88259595
0.86866946
0.86884729
0.87488972
0.88009154
0.88180955
0.87880008
0.8699863
0.85664531
0.84032307
0.8225113
0.80468852
0.79269559
0.79113183
0.80159775
0.82032659
0.84325776
0.8632577
0.87429323
0.8743326
0.8681281
0.86135605
0.85792261
0.85971303
0.86609559
0.87338219
0.87699281
0.87734272
0.87718499
0.87944613
0.88370212
0.89095193
0.89805283
0.90080115
0.89577736
0.88612663
0.87561068
0.86791306
0.86559114
0.87047301
0.88040989
0.89059585
0.89782032
0.90095738
0.89970456
0.89357365
0.88533086
0.87725786
0.8709754
0.86620846
0.86614605
0.87179263
0.88264056
0.89619454
0.91137061
0.92505236
0.93352571
0.9350698
0.93164321
0.92628477
0.92218378
0.9242461
0.93578345
0.95614545
0.97964161
1.001358
1.0153502
1.0174684
1.0059891
0.98670442
0.96605655
0.94964332
0.94038687
0.9399885
0.94575894
0.95262036
0.95704392
0.95826108
0.95607411
0.94960864
0.94041321
0.92982877
0.91878351
0.90712642
0.89906915
0.89738867
0.90307053
0.91387338
0.92855533
0.94325599
0.95386635
0.95824883
0.95818625
0.95531266
0.9499329
0.94292968
0.93515259
0.92685836
0.91806919
0.91293699
0.91514266
0.92599647
0.94160544
0.95896313
0.97178725
0.97470751
0.96563962
0.94979319
0.93383323
0.92381123
0.9240175
0.93623917
0.95729859
0.9805617
1.0013857
1.0169275
1.025508
1.0253831
1.0189549
1.0080917
0.99457939
0.9792704
0.96670281
0.95907873
0.95640702
0.95650939
0.95800173
0.95773736
0.95263159
0.94290743
0.93215037
0.92412168
0.92082338
0.92479212
0.93579312
0.95062948
0.96314461
0.97096647
0.97163102
0.96408309
0.94825133
0.92896349
0.91046239
0.8964003
0.88992121
0.89428315
0.90887097
0.92925818
0.95063375
0.96837484
0.97808867
0.9762582
0.96524449
0.94924258
0.93299589
0.91886857
0.91173063
0.91232269
0.9190123
0.92850246
0.93999724
0.95113243
0.95883582999999994
0.96112085
0.95821688
0.95030095
0.93778944
0.92431083
0.91418755
0.91036734
0.91265889
0.92165782
0.93497859
0.94868316
0.95764016
0.96137092
0.95921732
0.95133565
0.93884178
0.92580448
0.91517376
0.90881037
0.90909117
0.91819341
0.9351044
0.95478145
0.9730065
0.98541976
0.98870303
0.98066206
0.96619896
0.95074437999999994
0.93921502
0.93353288
0.93572903
0.94314949
0.95047502
0.95247483
0.94732056
0.93406368
0.91271904
0.88636929
0.85947108
0.83558862
0.81641957
0.80554641
0.8047274
0.81366
0.82850107
0.84775193
0.86713107
0.88190904
0.88820158
0.88770049
0.88381923
0.8817897
0.88852776
0.91087742
0.95043847
1.002087
1.0576703
1.1066731
1.1385687
1.1452363
1.1278826
1.0926836
1.0492154
1.0064453
0.97458362
0.95776383
0.95483913
0.96091716
0.9715214
0.98058512
0.9821217
0.97329564
0.95488152
0.92909034
0.89882725
0.87069457
0.85118113
0.84464635
0.85097087
0.87029371
0.89849705
0.92905233
0.953994
0.96993132
0.97450279
0.96757926
0.95193152
0.9340249
0.91955679
0.91211499
0.91454012
0.92733503
0.94692783
0.96577912
0.97849318
0.98043368
0.96962574
0.94624901
0.91807581
0.8922247
0.87445446
0.86735714
0.87299499
0.88879219
0.90955538
0.93062741
0.94982164
0.96496691
0.97356163
0.97630122
0.97537937
0.9732575
0.97140461
0.97459117
0.98522848
1.0025539
1.0210972
1.0369026
1.0438671
1.0370087
1.0148645
0.98329245
0.95050448
0.92495193
0.914176
0.92172991
0.94341256
0.96795842
0.98440841
0.98435633
0.96537073
0.9311405
0.89471714
0.86844829
0.85960275
0.86691308
0.88537727
0.90580392
0.92114386
0.93098703
0.94264252
0.96385983
0.99737296
1.0400041
1.0825416
1.1128582
1.1214687
1.1100434
1.0879631
1.0682003
1.0597645
1.0689384
1.0917553
1.1178188
1.1349498
1.1375343
1.1240482
1.0972515
1.0636046
1.031429
1.0060056
0.9888106
0.98088988
0.98149611
0.98731856
0.99200484
0.99204442
0.98372473
0.96500432
0.93549555
0.90167987
0.87020921
0.84713994
0.83631345
0.84033646
0.85651906
0.8779629
0.89755929
0.91036074
0.91344056
0.90650442
0.89529749
0.88724041
0.88857139
0.90110947
0.92658082
0.96133984
0.99893166
1.0316982
1.0566234
1.0710841
1.0737413
1.0652402
1.0492955
1.0286811
1.0052794
0.98299551
0.9662911
0.9578477
0.95727476
0.9650452
0.97875014
0.99369276
1.0026214
1.0037007
0.99554743
0.97924873
0.9578181
0.93847985
0.92612976
0.92235092
0.92613571
0.93522389
0.94485161
0.94930071
0.94649348
0.93695329
0.92224457
0.90306018
0.88341029
0.86606617
0.85314164
0.84536135
0.84681787
0.85896297
0.88061319
0.907909
0.93736619
0.96321178
0.97956096
0.9844154
0.98021513
0.97088794
0.96018671
0.95394134
0.95602454
0.96733453
0.98483913
1.0074993
1.0316556
1.0524545
1.0639837
1.0647709
1.0536308
1.0313751
1.0019595
0.97327295
0.95200781
0.94184767
0.94472715
0.95958605
0.98142708
1.0021851
1.0170418
1.0225004
1.0172888
1.0012235
0.98040984
0.96055199
0.94697221
0.94307731
0.95226739
0.97286192
0.99854933
1.0211483
1.0339154
1.031493
1.0118152
0.97996915
0.94516203
0.91701593
0.90163575
0.90408911
0.92319146
0.95280708
0.98294668
1.0076949
1.0216371
1.0221136
1.0098388
0.99068656
0.97041333
0.95373892
0.94519012
0.94769308
0.95985235
0.97590903
0.99065863
0.99869892
0.99590646
0.97980124
0.9553271
0.92883501
0.90721214
0.89526385
0.89789691
0.91430258
0.93918828
0.96520474
0.98646725
0.99729025
0.99436125
0.97892534
0.95498515
0.92843573
0.90622802
0.89675492
0.90444695
0.92833086
0.96140864
0.99465135
1.0173185
1.0223927
1.0096121
0.98539191
0.95696995
0.92914786
0.90373925
0.88032057
0.85898178
0.84382885
0.8437066
0.8645813
0.90291191
0.94327448
0.96567366
0.95391634
0.90815954
0.84896515
0.81068887
0.8199521
0.87826591
0.95521407
0.99838013
