0.7906646
0.79826429
0.83383826
0.86688228
0.87586273
0.8589114
0.83001053
0.80590279
0.79746644
0.80281561
0.81128246
0.81247974
0.80441488
0.79238298
0.78355733
0.78392706
0.79467516
0.81264948
0.83301274
0.85460076
0.8779741
0.9031539
0.92858537
0.95182431
0.96974308
0.97961534
0.98295295
0.98336464
0.98421694
0.98645574
0.99025115
0.99380691
0.9937584
0.98951441
0.98232424
0.97387936
0.96432019
0.9573416
0.95366481
0.95195322
0.95033808
0.94891303
0.94693133
0.94274432
0.93759061
0.93273205
0.92842591
0.92307706
0.9180603
0.91269789
0.90516407
0.894616
0.88239082
0.86967111
0.85669257
0.84652609
0.84068386
0.83839041
0.83666849
0.83503286
0.83220599
0.82758129
0.82400396
0.82612245
0.83686316
0.85520875
0.88086218
0.9098079
0.93653571
0.95651588
0.96980625
0.9771061
0.97916361
0.97880638
0.97823028
0.97781347
0.97560224
0.9735263
0.97178848
0.96986251
0.96743544
0.96582293
0.96470125
0.96212948
0.95892046
0.95584515
0.95279687
0.94801746
0.94320045
0.93818656
0.93197706
0.92471321
0.91825173
0.91314001
0.90771365
0.90260934
0.89734618
0.8906706
0.8809636
0.87024706
0.85947471
0.84846878
0.83798403
0.8291617
0.82183601
0.81400994
0.80746292
0.80286728
0.80024217
0.79947445
0.80295308
0.81144354
0.82424331
0.84229712
0.86598819
0.89370067
0.92085036
0.94616916
0.96656073
0.97924741
0.9836386
0.98273711
0.979305
0.97476584
0.97206861
0.97228546
0.97420826
0.97455845
0.97354404
0.97031127
0.96399421
0.95544653
0.94731674
0.94081239
0.93477034
0.93025897
0.92706062
0.92407014
0.91967441
0.91571878
0.91264235
0.90945536
0.90596433
0.90254668
0.89866894
0.89243863
0.885782
0.87949783
0.87310903
0.86512341
0.85617214
0.84596535
0.8339825
0.8226963
0.81512612
0.81247099
0.8122285
0.81454705
0.81735138
0.81911222
0.82088606
0.8271836
0.8408142
0.86080946
0.8855233
0.9105465
0.93038325
0.9404027
0.94286833
0.94105158
0.93822369
0.93737336
0.94031472
0.94548618
0.94894274
0.95029483
0.94974651
0.94792749
0.9450873
0.94367784
0.94350334
0.94252295
0.94001437
0.93656607
0.93256405
0.9271939
0.92301286
0.92068621
0.91919142
0.91647157
0.91261005
0.90661303
0.89704255
0.88534409
0.87421817
0.86584211
0.8599486
0.85887048
0.86164611
0.86522557
0.86628415
0.86385638
0.85693169
0.84458219
0.82981848
0.816208
0.80643891
0.80093854
0.80201723
0.80827392
0.8158191
0.82116816
0.82296576
0.82063022
0.81439494
0.80921168
0.80941129
0.81706735
0.83098842
0.85030277
0.87094071
0.88779608
0.89877015
0.90475498
0.90741083
0.90729165
0.908045
0.91073307
0.91430853
0.91673459
0.91862434
0.91961978
0.91858453
0.91667319
0.91544331
0.91529687
0.91416972
0.91363952
0.91308022
0.91081522
0.90542699
0.89785114
0.88826641
0.87595661
0.86304788
0.85169763
0.84297029
0.83588846000000006
0.83221983
0.83152222
0.83208996
0.83302482
0.83517758
0.83868182
0.84236621
0.84802766
0.85669045
0.86829182
0.88153655
0.89758417
0.91554873
0.93307294
0.94902089
0.96310712
0.97437126
0.98069574
0.98394743
0.98508553
0.98447508
0.98224115
0.98059773
0.97989875
0.97883151
0.97778481
0.97729393
0.97700697
0.97464269
0.97216605
0.96975588
0.96682116
0.96302791
0.95994583
0.95754792
0.95398194
0.94968664
0.94506749
0.9400139
0.93330903
0.92738358
0.922725
0.91820109
0.91278326
0.90657113
0.89877011
0.88765799
0.87538222
0.86394878
0.85449824
0.84668574
0.84223033
0.84039089
0.83900282
0.83780164
0.83814272
0.84107263
0.84617643
0.8561917
0.8713821
0.88998673
0.90916786
0.92808247
0.94459263
0.95607476
0.96294675
0.96677197
0.96890722
0.96905106
0.97040841
0.97327972
0.97607873
0.97693597
0.9760369
0.97294304
0.96674474
0.95992102
0.95476558
0.95193677
0.94947148
0.94797365
0.94591783
0.94128268
0.93396478
0.92630774
0.91974728
0.9134228
0.90826808
0.90340544
0.89674758
0.88592728
0.87282046
0.85905871
0.84576477
0.83499702
0.82845918
0.82537336
0.82213985
0.81855611
0.81411744
0.80915527
0.80532383
0.8073487
0.81768481
0.83555219
0.85970803
0.88706704
0.91288557
0.93136331000000006
0.94259281
0.94694798
0.94577067
0.94158031
0.93841639
0.93794404
0.93922202
0.94281489
0.94830525
0.95412205
0.95734769
0.95890243
0.9583501
0.95479676
0.94873848
0.94239316
0.93668005
0.93040479
0.92494308
0.92055665
0.91658462
0.91163218
0.90749564
0.90433509
0.90079504
0.89636115
0.89115482
0.88440789
0.87406034
0.86220963
0.85045851
0.83991134
0.83106127
0.82599515
0.82429143
0.8232583
0.82188172
0.82005398
0.81809445
0.81575709
0.81757872
0.82564034
0.83961691
0.85752997
0.87778389
0.89713784
0.91194378
0.9227806
0.93139974
0.93925984
0.9459762
0.9533588
0.96026725
0.9642394
0.96435563
0.96223296
0.9592637
0.95542428
0.95311903
0.95288904
0.95349994
0.95250914
0.95081403
0.94823245
0.94387029
0.93844452
0.93358743
0.92978905
0.92556127
0.92269201
0.92135156
0.92036787
0.91776665
0.91392823
0.90820123
0.89934566
0.88865208
0.87808875
0.86853259
0.85831138
0.84913401
0.84099907
0.83374759
0.82833599
0.82794365
0.8337314
0.84382506
0.8571366
0.87131972
0.88356637
0.8913394
0.89752442
0.90431868
0.91272272
0.92323401
0.93584883
0.94821488
0.95652342
0.96109741
0.96283174
0.96274136
0.96115212
0.96050777
0.96060696
0.9595062
0.95673509
0.95311791
0.9490114
0.94321794
0.93803387
0.93403526
0.93056948
0.92647907
0.92316775
0.92052629
0.91699607
0.91287107
0.90883426
0.90481125
0.89889851
0.89335561
0.88860526
0.8839823
0.87867704
0.87360772
0.86833327
0.86104024
0.85274684
0.84467917
0.83748754
0.83038881
0.8258913
0.8241262
0.82357787
0.82332176
0.82410837
0.82615254
0.82883944
0.83512426
0.84678917
0.86367793
0.88341604
0.90534791
0.92668508
0.94405133
0.95678216
0.96630274
0.9737513
0.97845461
0.98257048
0.98608331
0.98775353
0.98632394
0.98362328
0.98049916
0.97651809
0.97283315
0.97035783
0.9687193
0.96549427
0.96265363
0.96059187
0.95891934
0.9572599
0.95689157
0.95743567
0.95680391
0.95524445
0.95279976
0.94858731
0.94026285
0.92913695
0.91543987
0.89926675
0.8822873
0.867971
0.85832079
0.85266918
0.85190746
0.85507825
0.85997846
0.8639627
0.86821782
0.87310555
0.87826994
0.88472623
0.89374044
0.9049136
0.91572752
0.92708731
0.93851056
0.94884911
0.95694986
0.96408923
0.96999661
0.97314708
0.9741165
0.97381444
0.9724346
0.96842837
0.96433885
0.96066088
0.95685214
0.95251066
0.94904737
0.94631526
0.94246352
0.93824793
0.93421611
0.93007191
0.92411439
0.91840575
0.91325453
0.90791163
0.90230912
0.89767012
0.89373715
0.88820716
0.881641
0.87405392
0.86509774
0.85414237
0.84408323
0.83619851
0.83007693
0.82596875
0.82441336
0.82474982
0.82475184
0.82628383
0.83005707
0.83580068
0.84263808
0.85190174
0.86336066
0.87581115
0.89039767
0.90834851
0.92923391
0.94958859
0.96889212
0.98440223
0.9933849
0.99513666
0.99258362
0.98834633
0.98351485
0.98064866
0.98062008
0.98236514
0.98307805
0.98377717
0.98419267
0.98330075
0.98084507
0.97779219
0.97375075
0.96677154
0.95845071
0.95027522
0.94323395
0.93721396
0.93438954
0.93422324
0.93387137
0.93119556
0.92526816
0.9152714
0.90009327
0.88336832
0.86807104
0.85596578
0.84737657
0.84374
0.84403799
0.8456031
0.84800832
0.85165173
0.85654841
0.86102072
0.86724133
0.87511094
0.88364359
0.89242764
0.90301658
0.91556611
0.92852234
0.94222337
0.95601023
0.9681422
0.97598273
0.98098038
0.98357987
0.98386772
0.98298175
0.98284103
0.98334116
0.98198171
0.97905804
0.97433475
0.96746891
0.95809387
0.94960179
0.94348268
0.93906609
0.93581994
0.93309984
0.92891512
0.9200144
0.90782861
0.89363849
0.87844231
0.86271311
0.84872916
0.83658314
0.82461703
0.8130976
0.80298116
0.79468452999999994
0.78671025000000006
0.78123778
0.77818945
0.7763807
0.77490298
0.77491954
0.77648269
0.77844298
0.78258125
0.79082925
0.80466759
0.82423007
0.85221004
0.88746112
0.92540228
0.9604682
0.98798552
1.0037404
1.005275
0.99680337
0.98408713
0.97230858
0.96403935
0.96179596999999994
0.96373479
0.96555259
0.96482948
0.96156267
0.95633556
0.94873881
0.94179332
0.93638733
0.93168024
0.92605167
0.9206603
0.91563752
0.90998899
0.90451057
0.90022502
0.8970583
0.89273315
0.88883955
0.88512714
0.88030573
0.87310216
0.86447212
0.85474167
0.84348344
0.83317886
0.82611749
0.82295047
0.82168669
0.82310353
0.82611704
0.82936794
0.83353917
0.84137364
0.85393168
0.86930455
0.88720149
0.90562821
0.92214629
0.9350053
0.94701096
0.95997975
0.9739576
0.98884337
1.0036741
1.0157838
1.0214848
1.0222764
1.0199262
1.0161129
1.0118383
1.00942
1.0084307
1.0064328
1.0031837
0.99955101
0.99619712
0.99190119
0.98919647
0.98802099
0.98683878
0.98411447
0.98059121
0.97612161
0.96934105
0.96140377
0.95321908
0.94460881
0.93371198
0.92225403
0.91049003
0.89795063
0.88520303
0.8743915
0.86633114
0.85971924
0.85586925
0.85492526
0.85605871
0.85779082
0.86211793
0.86956421
0.87941726
0.89210355
0.90816535
0.92633776
0.94314155
0.95868771
0.97192817
0.98161329
0.98706628
0.99057372
0.99296922
0.99356374
0.99342403
0.99359619
0.99419905
0.99353997
0.99418182
0.99642941
0.99916985
1.0010143
1.0022266
1.0017609
0.99760837
0.99122956
0.98450098
0.97852492
0.97247403
0.9683464
0.96557141
0.96214169
0.95690899
0.95056795
0.94305229
0.93282763
0.92131109
0.90913887
0.89619743
0.88181746
0.86868776
0.85814758
0.850259
0.84603162
0.84658931
0.85126543
0.85704005
0.86437426
0.87244541
0.88001671
0.88620648
0.89306473
0.90119712
0.90973041
0.91943074
0.93076615
0.94294644
0.9531851
0.96270122
0.97072202
0.97572898
0.97684071
0.97544802
0.97209191
0.96640643
0.96085329
0.95724639
0.95567582
0.9538172
0.95222172
0.94952493
0.94401609
0.93599744
0.92817746
0.92227995
0.91772632
0.91588014
0.91626777
0.91705794
0.91576207
0.91360619
0.9108789
0.90686879
0.90185825
0.89647757
0.88999525
0.8799967
0.86818644
0.85580585
0.84391752
0.83345292
0.82732493
0.8260009
0.8275669
0.83132758
0.83664785
0.84245404
0.84659737
0.85176647
0.85898079
0.86818903
0.87903466
0.89218118
0.90638149
0.91894393
0.93000729
0.93980144
0.94799463
0.9530392
0.95670466
0.95896621
0.95905047
0.95742254
0.95605999
0.95551712
0.9540727
0.95243683
0.95028596
0.9467847
0.94095253
0.93552822
0.93153494
0.9279871
0.92423635
0.91995913
0.91408197
0.90475933
0.8949211
0.88679689
0.88118868
0.87705779
0.87430966
0.87071797
0.86325228
0.85225938
0.84011693
0.82926516
0.81990307
0.81494997
0.81404455
0.81511486
0.81642908
0.81892847
0.82311442
0.82849605
0.8369734
0.84950767
0.86543093
0.88218914
0.90040502
0.91880671
0.9352556
0.94876536
0.95997656
0.96876876
0.97389842
0.97739421
0.98038076
0.98280814
0.98338922
0.98341068
0.98236842
0.97875954
0.97297356
0.96681514
0.96135936
0.95567559
0.95192414
0.95010111
0.94849365
0.9446126
0.93888482
0.93118579
0.921176
0.91122532
0.9041463
0.90095235
0.89907472
0.89849562
0.89680985
0.8912973
0.88086628
0.86810678
0.85541533
0.8436796
0.83533698
0.83136464
0.83087298
0.83117564
0.83350873
0.83781948
0.84342161
0.85058034
0.86069795
0.8736688
0.88764681
0.90381912
0.92232099
0.94207795
0.96077626
0.97860287
0.99390676
1.0042541
1.0094842
1.0111125
1.010202
1.0061541
1.0017823
0.99809752
0.99489949
0.99149371
0.98953258
0.9888557
0.98757194
0.98556114
0.98320327
0.98049382
0.97597338
0.9726681
0.9713612
0.97100107
0.96959404
0.96652916
0.96004129
0.94783025
0.93150675
0.91378714
0.89693493
0.88116043
0.86909501
0.8605445
0.85372135
0.84784376
0.84434695
0.84420119
0.84683269
0.85423122
0.86643117
0.88137733
0.89543779
0.90818986
0.91825392
0.92429071
0.92769462
0.93131712
0.9367354
0.94287347
0.95129937
0.96126192
0.9708891
0.97846355
0.98536645
0.99191298
0.99724569
1.0021895
1.0072084
1.0115214
1.0126105
1.012172
1.0103843
1.0069584
1.002095
0.99759458
0.99364513
0.98880329
0.9840207
0.97999598
0.97653064
0.97186886
0.96758276
0.96341454
0.95812243
0.95144031
0.94485622
0.93899929
0.93290664
0.92839609
0.92606343
0.92505983
0.92314552
0.92084415
0.91702993
0.90972612
0.89899476
0.8864024
0.87290254
0.85769807
0.84340054
0.83066723
0.81878785
0.80661455
0.79574835
0.78669141
0.77920783
0.7756353
0.77858413
0.78924953
0.80591081
0.82957871
0.85778495
0.88621678
0.9107577
0.92988089
0.94211246
0.94628398
0.94526561
0.94228333
0.93946556
0.93666228
0.93616901
0.9375055
0.93875
0.93902899
0.93939764
0.94006111
0.93953932
0.93925362
0.93945639
0.93927626
0.93700759
0.93445178
0.93212577
0.92949548
0.9271634
0.92608642
0.92548799
0.92226784
0.91673857
0.90855854
0.89753482
0.88408525
0.87159853
0.86194321
0.85484531
0.85067957
0.84936238
0.84981977
0.84952986
0.85071196
0.85436756
0.86075557
0.86994858
0.88304027
0.89897224
0.91489838
0.93051707
0.94552253
0.95909989
0.96938027
0.97787458
0.98434688
0.98778948
0.98839245
0.98781645
0.98658434
0.98343737
0.97982313
0.9760829
0.97165023
0.96531192
0.95927494
0.95423713
0.94956071
0.94564795
0.94329664
0.94186267
0.93875472
0.93514649
0.93122784
0.92666211
0.92090653
0.91573807
0.91106314
0.90569636
0.89905825
0.88987662
0.87733338
0.86207835
0.84814189
0.83794312
0.83148148
0.82666838
0.82026692
0.80953569
0.79548004
0.78496668
0.78475155
0.79721128
0.81826608
0.84106902
0.85845346
0.86962841
0.8823628
0.906051
0.94192896
0.97859108
0.99838305
0.98665449
0.94562547
0.89891963
0.88140431
0.91485219
0.98924775
1.0607314
