0.68050508
0.72175562
0.77493855
0.80582624
0.804769
0.78567923
0.76898568
0.76716599
0.77658251
0.78396377
0.78088268
0.76940083
0.7575113
0.75188068
0.75406139
0.75975912
0.76348605
0.76550802
0.76941121
0.77744879
0.79063286
0.80713119
0.82325939
0.83679031
0.84777371
0.85496447
0.85464047
0.84463418
0.82482505
0.79733048
0.77154235
0.75506046
0.75023211
0.75599157
0.76712215
0.77648199
0.78057547
0.78221793
0.78543794
0.79200079
0.80367345
0.81668777
0.82408809
0.82348053
0.81557727
0.80324677
0.79206548
0.78788195
0.79252455
0.80419691
0.82183305
0.84210565
0.86031695
0.87610698
0.88876833
0.89659575
0.89974457
0.89896683
0.89383572
0.88454477
0.87433115
0.86536046
0.85772596
0.85452131
0.85555284
0.85807482
0.8611841
0.8644398
0.86686562
0.86860806
0.8714285
0.87463585
0.87484952
0.8716589
0.86348325
0.84870408
0.83071668
0.81353343
0.79957055
0.79104385
0.78952284
0.79362608
0.80053575
0.81018111
0.82070292
0.82798903
0.83131792
0.82913249
0.81983138
0.80578151
0.79147309
0.7799606
0.77285166
0.77201679
0.775822
0.77998014
0.78511795
0.7912332
0.79797246
0.80772094
0.82201845
0.83939852
0.85745381
0.87461105
0.88751853
0.89212318
0.88956335
0.88081197
0.86659807
0.85156633
0.83945327
0.8313732
0.82804232
0.82996407
0.83524211
0.84101851
0.84770647
0.85459647
0.85946021
0.86370501
0.86728205
0.86842988
0.86716717
0.86429059
0.85934638
0.85210178
0.8452611
0.84036872
0.83688213
0.83774194
0.84296095
0.84988651
0.85739199
0.86438246
0.86917171
0.87182289
0.87493192
0.8791607
0.8824306
0.88513599
0.88530094
0.88003783
0.8713125
0.86178388
0.85285415
0.84624067
0.84352937
0.84375056
0.84497931
0.84853474
0.85434745
0.86042884
0.86800876
0.87661886
0.88418223
0.89056136
0.89598303
0.89846347
0.89534255
0.88673159
0.87270991
0.85373275
0.83663499
0.82672124
0.82595585
0.83528172999999994
0.85205503
0.87015677
0.88443634
0.89373039
0.89802013
0.89773923
0.89707845
0.89699601
0.89490145
0.89013175
0.88134406
0.86700442
0.84882491
0.83145659
0.81857957
0.81224085
0.81530156
0.8263761
0.84030913
0.85491969
0.86745636
0.87533054
0.87943942
0.8819682
0.88329919
0.88288319
0.88165472
0.87859575
0.87109495
0.86167466
0.85165294
0.84120454
0.83255529
0.82711011
0.82407012
0.82288511
0.8247572
0.82955728
0.83579314
0.84483461
0.85499455
0.86198002
0.86449276
0.86153766
0.8525927
0.84039465
0.82976935
0.82321359
0.8203541
0.82141892
0.82353628
0.82224519
0.8183685
0.81356802
0.80935152
0.80887108
0.8141082
0.82316004
0.83222525
0.83938193
0.84186564
0.83651566
0.8264725
0.81425195
0.80127931
0.79090333
0.78509846
0.78271763
0.7820283
0.78296763
0.78461571
0.78569663
0.78921491
0.79619023
0.80501359
0.81589022
0.82751067
0.8370668
0.84365695
0.84831374
0.85072131
0.84954185
0.84635129
0.84145196
0.83423713
0.82875802
0.82788408
0.83179744
0.84042027
0.85248527
0.86465741
0.87424337
0.88207541
0.88827231
0.89097006
0.89195203
0.89100827
0.88713148
0.88243811
0.87892452
0.87585275
0.87129928
0.86443063
0.85414907
0.84057285
0.82977443
0.82631252
0.8305905
0.84217184
0.85708459
0.86953935
0.87710932
0.88152289
0.88469809
0.88724707
0.89046779
0.89172105
0.88596396
0.87331479
0.85531344
0.83439405
0.81559435
0.80341059
0.7984071
0.79854303
0.80260743
0.80764184000000006
0.80977233
0.81088487
0.81216941
0.81397183
0.81888091
0.82838495
0.84119276
0.85549585
0.87048012
0.88329983
0.88970899
0.88982109
0.88310957
0.86893877
0.85148431
0.83531256
0.82316319
0.81738894
0.81918732
0.82585444
0.8327209
0.83856774
0.84202188
0.84182319
0.84168847
0.84370248
0.84686728
0.85000219
0.85116226
0.84705475
0.83602716
0.8213709
0.80695258
0.79519896
0.79124114
0.79582103
0.80577759
0.81894026
0.83327624
0.84666272
0.85908772
0.87293478
0.88848699
0.90323487
0.91669208
0.92593744
0.9273109
0.92192089
0.91188654
0.8988941
0.88564825
0.87480194
0.86617982
0.85809379
0.85174874
0.84731292
0.84376774
0.84349385
0.84658784
0.85031964
0.85283849
0.85286823
0.84862036
0.83973596
0.82959024
0.82028761
0.8111861
0.80472458
0.80057051
0.79668995
0.79372165
0.79258063
0.79241803
0.79204439
0.79101697
0.78704803
0.77742862
0.76509369
0.75320589
0.74429609
0.74329267
0.75162209
0.76567678
0.78057254
0.79224039
0.7970644
0.79427648
0.78951664
0.78811364
0.79245714
0.80538891
0.82496275
0.84562593
0.86358201
0.87715426
0.88525908
0.88816262
0.8886319
0.88710364
0.8811379
0.87227261
0.86081771
0.84674537
0.83335697
0.82408115
0.81993336000000006
0.820738
0.82630529
0.83384533
0.83926396
0.84312561
0.84595858
0.84785694
0.85171395
0.8583249
0.86471961
0.86732989
0.86399751
0.8532467
0.83591883
0.81818342
0.8047885
0.79664594
0.7950752
0.79788511
0.80114037
0.80420304
0.80890836
0.81643311
0.82701467
0.84119917
0.85602271
0.86591141
0.87048023
0.86908872
0.86131403
0.8502981
0.83943676
0.83035721
0.8246437
0.82482364
0.83066227
0.83917795
0.8499543
0.86051725
0.86739018
0.87125605
0.8730737
0.87262506
0.87051235
0.8676916
0.8629001
0.85413379
0.84319871
0.83138111
0.81915463
0.81066269
0.80782929
0.80937745
0.81405436
0.82033015
0.82559967
0.82847479
0.83124783
0.83530524
0.83960558
0.84603158
0.85339014
0.85862513
0.86159179
0.86278418
0.86162609
0.8580496
0.85346865
0.84761917
0.83922622
0.83130261
0.82566489
0.82245113
0.82391562
0.83006554
0.83794704
0.84504098
0.85006851
0.85111849
0.84696137
0.84059777
0.83407293
0.82762606
0.82408811
0.82351285
0.82315915
0.82145858
0.81798308
0.81244096
0.80615645
0.80340699
0.80608584
0.81214856
0.82148325
0.83119754
0.83771696
0.8415084
0.84406376
0.84520663
0.8442179
0.84122882
0.83519527
0.82539017
0.81637219
0.8111284
0.80934035
0.81106232
0.81387936
0.81409922
0.81107844
0.80726153
0.80403608
0.80083909
0.79836926
0.79500093
0.78841578
0.78189277
0.77849465
0.77883828
0.78277765
0.78828967
0.79119782
0.78887369
0.78391365
0.77959997
0.7774752
0.78128699
0.79033359
0.80060254
0.81015001
0.81791456
0.82269836
0.82481171
0.82652066
0.82809982
0.82787992
0.82747579
0.82676487
0.82433634
0.82212674
0.82154978
0.82226846
0.82446807
0.82875007
0.83370429
0.83716351
0.84019783
0.84284369
0.84377403
0.84505639
0.84693843
0.84740189
0.84565661
0.84169509
0.83480646
0.82521228
0.81642614
0.81067611
0.80758917
0.80958835
0.81595054
0.82358534
0.83140777
0.83853519
0.84316689
0.84466808
0.84469891
0.84375904
0.84107388
0.83916175
0.83813393
0.83570687
0.83207049
0.82677407
0.81859619
0.80860791
0.80005124
0.79506812
0.79459641
0.80119024
0.81404343
0.82902882
0.84485347
0.85896997
0.86808546
0.87183906
0.87140723
0.86696218
0.85873547
0.84939758
0.84011205
0.83014481
0.82275602
0.81889415
0.81731549
0.81831803
0.82159125
0.82528149
0.82842227
0.83213412
0.83597576
0.83775071
0.83838053
0.83689456
0.83123594
0.82347767
0.81600037
0.81000448
0.80728008
0.80958359
0.81592078
0.82377005
0.83323458
0.84296132
0.85013915
0.85576452
0.85990185
0.86142875
0.86120994
0.86036225
0.85774034
0.85158247
0.84290894
0.83246024
0.82056986
0.81263868
0.81101294
0.81387849
0.81911198
0.82374788
0.82515134
0.82439075
0.8262738
0.83314056
0.84247599
0.85183945
0.85620057
0.85159749
0.84137108
0.830778
0.82260432000000006
0.81721649
0.81309312
0.80732808
0.79954278
0.79583934
0.80118028
0.81515685
0.83543771
0.85501362
0.86671204
0.87021886
0.87067521
0.87289305
0.8783054
0.8854797
0.88825482
0.87975734
0.8620551
0.84032206
0.82037553
0.80857904
0.80712817
0.8129728
0.82188284
0.83160328
0.83956135
0.84295588
0.84325257
0.84096305
0.83597084
0.83175434
0.83045727
0.83091331
0.8310486
0.8290419
0.82275547
0.81201502
0.8019117
0.7963774
0.79574287
0.80068771
0.80835357
0.81429002
0.81762148
0.82009968
0.82292033
0.82639956
0.83120186
0.83484409
0.83284875
0.82635965
0.81656017
0.80471311
0.79469099
0.78928597
0.78829909
0.79065583
0.79598612
0.80208233
0.80564262
0.8074404
0.80739374
0.80474252
0.80216623
0.80128617
0.80120575
0.80102901
0.80035443
0.79754819
0.79134737
0.78464726
0.77941522
0.77566217
0.77571846
0.77922919
0.78333722
0.78668563
0.78903524
0.78970701
0.78878408
0.78875691
0.78998555
0.78992892
0.78936189
0.78716872
0.7816806
0.77478732
0.76917384
0.76612348
0.76654429
0.77153417
0.7795447
0.78731025
0.79513047
0.80228944
0.80716466
0.81113201
0.81456366
0.815956
0.81476884
0.81183769
0.80707405
0.8002479
0.79432592
0.79058821
0.78809561
0.78842378
0.79098079
0.793137
0.79396418
0.79381682
0.79278122
0.7916342
0.79299284
0.79652363
0.79823325999999994
0.79693649
0.79046381
0.7777334
0.76262506
0.75013106
0.74264837
0.74023449
0.7419735
0.7447867
0.74582628
0.74792329
0.75362441
0.76318721
0.77720816
0.79300463
0.80543666
0.81161386
0.81207245
0.80784217
0.79996674
0.79208287
0.78543337
0.77897751
0.77478689
0.77316584
0.7720734
0.77020221
0.76652978
0.7596308
0.74996193
0.74197053
0.73907411
0.74140404
0.7505421
0.76370153
0.7753531
0.78268467
0.78459309
0.78068925
0.77268273
0.7645911
0.75860686
0.7546777
0.7552436
0.76070288
0.76973959
0.78340952
0.80108861
0.81914104
0.8337969
0.84244016
0.84262307
0.83384291
0.82088513
0.80764383
0.79511519
0.7857175
0.7791274
0.77351829
0.76987382
0.7708143
0.77727986
0.7883051
0.8028136
0.8168714
0.82507581
0.82780707
0.82602482
0.82065037
0.81483809
0.81068718
0.80764511
0.80492209
0.80330817
0.80231055
0.80035843
0.79940857
0.79998091
0.80123392
0.80498372
0.81177669
0.81965231
0.82682775
0.83241607
0.83477863
0.83294099
0.83008332
0.82796704
0.82573273
0.82459809
0.8233403
0.81911415
0.81171753
0.80309806
0.79512135
0.7898613
0.79061803
0.79727004
0.80572303
0.81474786
0.82150328
0.82316726
0.82101164
0.81718401
0.81211682
0.80583184
0.79943002
0.79273992
0.7852684
0.7809486
0.78183374
0.78692296
0.79596671
0.80654192
0.81480871
0.81952108
0.822317
0.82421205
0.82499096
0.82603732
0.82596854
0.82165858
0.81468695
0.80683004
0.79924761
0.79447293
0.79413399
0.79672455
0.7996217
0.80247881
0.80447866
0.80425411
0.8052729
0.80909055
0.81478649
0.8223141
0.83033316
0.8356493
0.83617376
0.83268429
0.82552137
0.81440411
0.80293546
0.79329118
0.78623897
0.78492351
0.79051011
0.80069387
0.81234822
0.82259259
0.82793695
0.8263989
0.82127072
0.81534739
0.80901712
0.80458366
0.80140935
0.7967861
0.79057255
0.78469942
0.78056063
0.77919166
0.78262637
0.78978194
0.79664328
0.80339621
0.80942228
0.81381664
0.81844782
0.82440256
0.82974631
0.83170506
0.82899309
0.81999452
0.80405738
0.78652727
0.77225057
0.76389552
0.76465214
0.77391645
0.78715243
0.80030857
0.81190414
0.82154823
0.83021816
0.84200995
0.85737192
0.87188454
0.88246437
0.88492503
0.87637701
0.85967674
0.84130891
0.82668066
0.81865133
0.81856745
0.82319485
0.82648538
0.82792023
0.82780232
0.82698596
0.82881817
0.8347897
0.84226255
0.84730772
0.84788448
0.84244202
0.8309069
0.81879981
0.81001912
0.80513755
0.80502778
0.8080809
0.8110099
0.81282549
0.81520835
0.81904967
0.82383414
0.83043291
0.83687255
0.83934768
0.83875233
0.83605419
0.83157312
0.82735381
0.82506853
0.8239745
0.82293269
0.82333426
0.82541683
0.82754396
0.83167703
0.83714356
0.84120719
0.84346765
0.84395673
0.84195127
0.83786222
0.83392888
0.83032593
0.8251494
0.81968703
0.81370601
0.80625408
0.80009564
0.79740622
0.7980152
0.80140543
0.80688333
0.81186454
0.81374895
0.81417224
0.81427027
0.81364031
0.81457796
0.81661055
0.81670449
0.81364589
0.80810235
0.80134994
0.79613198
0.79720726
0.8055826
0.81715347
0.82957481
0.83867131
0.84125229
0.83967258
0.83787142
0.83734473
0.83735199
0.83640679
0.83124908
0.81966663
0.80627374
0.79582913
0.79064675
0.79274804
0.80001182
0.80723865
0.81127327
0.81252748
0.81202336
0.81046895
0.81016453
0.81003834
0.8065131
0.80015283
0.79205354
0.7836436
0.77852391
0.77946728
0.78541658
0.79302757
0.80023871
0.80454236
0.80391697
0.80258125
0.80371025
0.80774125
0.8149132
0.82289943
0.82692674
0.82396694
0.81542463
0.80371385
0.79112038
0.78305547
0.78139785
0.78433016
0.79130037
0.80018488
0.80715092
0.80987554
0.80810251
0.8013026
0.78947114
0.7765407
0.76498639
0.75478893
0.74828511
0.74530133
0.74347239
0.74231043
0.74279758
0.74547092
0.75127685
0.76308403
0.78091815
0.80100407
0.82216536
0.84095675
0.85333836
0.85936859
0.86079924
0.85878169
0.85481214
0.85124669
0.84787882
0.84266869
0.83742956
0.83303842
0.82945015
0.8293855
0.83388808
0.8409538
0.84840415
0.85492097
0.8585592
0.85815353
0.85678608
0.8561545
0.85521662
0.85504881
0.85454101
0.8511285
0.84492175
0.83807433
0.83218128
0.82847184
0.82935961
0.83421515
0.83912395
0.84409438
0.84809469
0.8497178
0.85076212
0.85262078
0.85377078
0.8519442
0.84666673
0.83740733999999994
0.82465346
0.81420694
0.80964211
0.81044541
0.81607283
0.82366368
0.82962884
0.83400497
0.84004476
0.84921547
0.85977324
0.87024843
0.87656466
0.87472548
0.86795749
0.86074999
0.85599621
0.85589458
0.8602362
0.86603563
0.87120917
0.87787734
0.88728703
0.89730544
0.90773322
0.9151311
0.91539521
0.90938265
0.90004247
0.8894177
0.87844418
0.86614039
0.850987
0.83492296
0.82473536
0.82519128
0.83555481
0.85056716
0.8616091
0.86387437
0.86158403
0.8628589
0.87093192
0.88031981
0.8808354
0.86545658
0.83968574
0.82150048
0.82432219
0.84431126
0.86178958
0.85526095
0.82285517
0.79195172
0.80195748
0.86900189
0.96185137
