0.97004612
0.96118169
0.99407524
1.0434485
1.0799081
1.0877984
1.0684194
1.035921
1.0063913
0.99134425
0.9914238
0.99891885
1.0034866
1.0006951
0.99218934
0.98375655
0.98088671
0.98766215
1.0035667
1.0246647
1.0460207
1.0659281
1.084295
1.1014345
1.1170111
1.1314599
1.144195
1.1539729
1.1600401
1.1639307
1.1670761
1.1696444
1.1710121
1.1712549
1.1699355
1.165572
1.1584502
1.1499313
1.1404423
1.1290362
1.1164769
1.1038086
1.0909962
1.076531
1.0612137
1.0462304
1.0323377
1.0190749
1.0085466
1.0022816
1.0005149
1.0012174
1.0047588
1.0109417
1.0193849
1.028497
1.0403464
1.0560399
1.0754979
1.095572
1.115863
1.1343066
1.1488885
1.1565939
1.1599734
1.1607692
1.1605935
1.1582024
1.1559611
1.1531215
1.1483464
1.1389399
1.1272973
1.1144995
1.1015746
1.0879874
1.0763239
1.0665125
1.0576414
1.0479802
1.0394721
1.0325579
1.0271477
1.0223675
1.019913
1.0196093
1.0206909
1.0225337
1.0275322
1.0367368
1.0500659
1.0667278
1.0872551
1.1099317
1.1316695
1.1499004
1.1645724
1.1751273
1.1807384
1.181972
1.1812148
1.1794403
1.1760343
1.1711792
1.1658716
1.1596604
1.1508191
1.1394718
1.126809
1.1131682
1.0977162
1.0816854
1.0666956
1.0533751
1.0408955
1.0305765
1.023522
1.019647
1.0170099
1.0160447
1.0170195
1.0198878
1.0234476
1.0296948
1.0398677
1.0538714
1.0687291
1.0838036
1.0971642
1.1068364
1.1100762
1.109309
1.1068013
1.1048086
1.1030017
1.1041055
1.1077877
1.1125272
1.1143821
1.1143388
1.111764
1.106333
1.0964174
1.0846489
1.0716065
1.0575907
1.0418545
1.027485
1.0156015
1.0065357
0.99922057
0.9952164
0.9939656
0.99436697
0.9951457
0.99829587
1.0044681
1.0135182
1.0246054
1.0388007
1.0551821
1.0717894
1.0868075
1.1009284
1.1136281
1.1235335
1.129763
1.1335149
1.1349983
1.1338775
1.131077
1.1290478
1.128345
1.1273498
1.1246494
1.1194981
1.1103795
1.0957594
1.0771995
1.0581137
1.0410143
1.0262407
1.014617
1.006049
0.99896687
0.99082908
0.98236671
0.97538967
0.97125924
0.96935662
0.97064225
0.97504487
0.98159889
0.98817409
0.99635282
1.0077123
1.0229676
1.0399366
1.0582461
1.0755793
1.0891016
1.0951588
1.0954806
1.0920407
1.0871831
1.0809485
1.0762929
1.0730651
1.0699605
1.0635908
1.0555827
1.046336
1.0366622
1.0259499
1.0171349
1.0105356
1.0055857
1.0003289
0.99647473
0.99417564
0.99337955
0.99324533
0.99593824
1.0017095
1.0099838
1.0193809
1.031166
1.0448248
1.058893
1.0713939
1.0829231
1.0927904
1.0998349
1.103308
1.1050115
1.1053885
1.1037717
1.0996924
1.0945519
1.0885688
1.0812123
1.0730483
1.0661781
1.0609843
1.0559829
1.0501599
1.0432677
1.0341392
1.0212429
1.0057183
0.9904199
0.97753723
0.96756152
0.96179637
0.9607375
0.96304159
0.96569019
0.96825161
0.97133872
0.97577159
0.98143821
0.9907141
1.0050925
1.0242331
1.0449039
1.0659178
1.0853269
1.1010823
1.1103507
1.114801
1.1160929
1.1158159
1.1134798
1.1116762
1.1108058
1.1102055
1.106935
1.1021079
1.0953697
1.086458
1.0735226
1.0592534
1.0446051
1.0305434
1.0166234
1.0060452
0.99959353
0.9968824
0.99548901
0.99591841
0.99703695
0.99800243
0.9981396
1.0006862
1.0074311
1.0188737
1.033536
1.0513074
1.0696118
1.0851325
1.0950814
1.1005939
1.102588
1.1018575
1.0992337
1.0972485
1.096227
1.094936
1.0923565
1.0894237
1.0858308
1.0803451
1.0726197
1.0637902
1.0537443
1.0414665
1.0275095
1.0138444
1.0014406
0.98997616
0.98036596
0.9738308
0.9701498
0.96756519
0.96610341
0.96632626
0.96808195
0.97001717
0.97305809
0.97832565
0.98614446
0.99517635
1.006388
1.0202533
1.036194
1.0516057
1.0664705
1.0800826
1.091265
1.0974403
1.09989
1.0994876
1.0970755
1.0918417
1.0864829
1.0818244
1.0776505
1.0712769
1.0636726
1.0542209
1.0425847
1.0273244
1.0119571
0.99846477
0.98855222
0.98179306
0.98049371
0.98387241
0.98980211
0.9945304
0.99810108
0.99989992
1.0002362
0.99965269
1.0022416
1.0099203
1.0226117
1.0378439
1.0545249
1.0695084
1.0795681
1.0826649
1.0809792
1.0764922
1.070766
1.0649293
1.0612258
1.0593843
1.0575725
1.0543926
1.0506287
1.046134
1.040015
1.0322279
1.0239977
1.0152079
1.0048215
0.99339456
0.98297872
0.97469374
0.96831704
0.96463514
0.96455833
0.96749774
0.97138359
0.9760504
0.98207177
0.9893636
0.99644436
1.0038029
1.0118309
1.0199679
1.026118
1.0308553
1.0347964
1.0380873
1.0393365
1.0400121
1.0409106
1.04211
1.0418078
1.0413162
1.0407775
1.0396956
1.0357352
1.0302162
1.0233727
1.0154381
1.0052028
0.99548574
0.98740415
0.98149944
0.97597117
0.97261814
0.97102334
0.97055689
0.96936423
0.96971636
0.97236526
0.97772552
0.98464635
0.99477669
1.0073924
1.0207799
1.0321013
1.0418474
1.0494574
1.0545022
1.0565326
1.0581428
1.0601847
1.0623108000000001
1.063301
1.0639212
1.0633285
1.0601982
1.0538958
1.0464608
1.038817
1.0309268
1.022818
1.0157265
1.0092119
1.001826
0.9932075
0.98478465
0.97710239
0.96973561
0.96323914
0.95896776
0.95699477
0.95616184
0.95681799
0.96014539
0.96619065
0.97329642
0.98115091
0.98969325
0.99804489
1.0042477
1.0089704
1.0133726
1.0177755
1.0205414
1.022101
1.0224516
1.0211276
1.0166221
1.011005
1.006025
1.0025291
0.99885743
0.99570238
0.99228438
0.98754055
0.97947236
0.97057831
0.9626407
0.95695613
0.95226891
0.94997562
0.94915091
0.94866477
0.94638133
0.94523243
0.94708235
0.95356991
0.96395958
0.97972932
0.99924649
1.0197965
1.0375653
1.0528212
1.0651815
1.0746056
1.0804653
1.0850321
1.0886084
1.0906268
1.0898605
1.0878908
1.0849172
1.0805955
1.0743711
1.0679864
1.0615751
1.0544279
1.0459476
1.0375759
1.0293505
1.0204004
1.0102228
0.99991541
0.98932359
0.97750487
0.96457715
0.95237763
0.94194521
0.93347201
0.92806046
0.92730429
0.93093687
0.93668363
0.94308333
0.94942769
0.95466583
0.95745197
0.95907924
0.96172381
0.96640145
0.97180382
0.9776457
0.98297462
0.9860549
0.98445585
0.97954407
0.9734919
0.96823404
0.96373825
0.96181889
0.96235915
0.96373705
0.96251219
0.9589786
0.95341896
0.94663708
0.93835917
0.93166128
0.92767746
0.92628974
0.92489777
0.92420953
0.92355348
0.92265585
0.92022806
0.91946071
0.92177171
0.92785794
0.93604087
0.94731657
0.96034244
0.9733055
0.98351585
0.99218181
0.99940975
1.0051042
1.0081708
1.0102627
1.0112218
1.0103633
1.0067203
1.0024238
0.99832935
0.99455134
0.99054834
0.98755145
0.98484022
0.98077044
0.97402223
0.96579427
0.95654197
0.9463213
0.93575604
0.92696263
0.92051169
0.91571756
0.91238658
0.91154656
0.91310003
0.91594519
0.91999938
0.92615966
0.93416337
0.94244186
0.95061596
0.95899409
0.96702046
0.97307845
0.97745865
0.98111629
0.98430332
0.98592468
0.9868028
0.98767284
0.98838669
0.98734511
0.98541705
0.98329443
0.98107325
0.97736246
0.97339845
0.96968446
0.96607362
0.96085988
0.95527772
0.949637
0.94382218
0.93620064
0.92851599
0.92153862
0.91598296
0.91107481
0.90947696
0.91195015
0.91830238
0.92575792
0.93471693
0.94366822
0.95122963
0.95526817
0.95795198
0.96029459
0.9630088
0.96516586
0.96840754
0.97210919
0.97491995
0.97477449
0.97303655
0.97004395
0.96600044
0.96066384
0.95612967
0.95247026
0.94862513
0.94306891
0.93658668
0.92890936
0.9196168
0.90897177
0.89941565
0.89202335
0.88671798
0.88339083
0.8830976
0.88546544
0.88921403
0.8939232
0.90057253
0.90890092
0.91731223
0.92492916
0.93187901
0.9375615
0.94081773
0.94249269
0.94461788
0.94818738
0.95229063
0.95681545
0.96133138
0.96429466
0.96319547
0.95847175
0.95167704
0.94428184
0.93638317
0.92992836
0.92573581
0.92309084
0.9192591
0.91416267
0.90760406
0.89953448
0.88904998
0.8786228
0.86998766
0.86426539
0.86056503
0.86072469
0.86499132
0.87292411
0.88214984
0.89361224
0.90681803
0.92106753
0.93391388
0.94668412
0.95901738
0.97035496
0.97870155
0.98569
0.99143345
0.995878
0.9978873
0.99954866
1.0011617
1.0023663
1.0017474
1.0007237
0.99922823
0.99685325
0.99284509
0.98902466
0.98549854
0.98138887
0.97531898
0.96813073
0.95966674
0.94974956
0.93903664
0.93052464
0.92578731
0.92482484
0.92690866
0.93192934
0.93805941
0.94268526
0.94458019
0.94490728
0.94461442
0.9439753
0.94398462
0.94604911
0.94984543
0.95339725
0.95593711
0.95771227
0.95853622
0.95744277
0.95538815
0.95362597
0.95222349
0.94955452
0.94580992
0.9412624
0.9357517
0.92823019
0.92042596
0.91390983
0.90938181
0.90560285
0.90339376
0.90254144
0.90223677
0.90050062
0.89889011
0.89860082
0.90062234
0.90411734
0.91088587
0.92077032
0.93259662
0.94306805
0.95253853
0.96027222
0.9658073
0.96725158
0.9670355
0.9659444
0.96455224
0.96175991
0.95992014
0.95931035
0.95947252
0.95836335
0.95707429
0.95507426
0.95166243
0.94563054
0.93905397
0.93249877
0.92584122
0.91816006
0.91092568
0.90417825
0.89763489
0.8911768
0.88705312
0.88593229
0.88720299
0.88966643
0.89357655
0.89803047
0.90195124
0.90553439
0.91127171
0.92055156
0.93317869
0.94847693
0.96594536
0.9833767
0.99767933
1.0076132
1.0140717
1.0177344
1.0183833
1.0169511
1.0146862
1.0115982
1.0065058
1.0002815
0.99450896
0.98982798
0.9850117
0.98016406
0.97497359
0.96835959
0.95837386
0.94624997
0.93369825
0.92199603
0.91062612
0.90102242
0.89357665
0.88806383
0.88305948
0.88041446
0.88127478
0.88589074
0.89193823
0.89933954
0.90653084
0.91207657
0.913945
0.91496993
0.91739058
0.92309533
0.9310428
0.94255145
0.95584302
0.9683994
0.97661323
0.98172265
0.98440572
0.98577795
0.98578213
0.98715974
0.99000263
0.99320552
0.99448517
0.9947009
0.99345738
0.990231
0.98424371
0.9773823
0.96995592
0.96161681
0.95192464
0.94291655
0.9354622
0.92983694
0.92631554
0.92676382
0.931222
0.93829035
0.94642999
0.95552753
0.9644258
0.97144345
0.97611312
0.97984263
0.98320121
0.98565265
0.98736328
0.98922355
0.99090972
0.99100642
0.98968215
0.98814463
0.9868108
0.98472667
0.9823362
0.98013814
0.97754417
0.97266839
0.96592473
0.95814645
0.94973714
0.93989971
0.93023746
0.92198503
0.91557512
0.90980736
0.90599337
0.90465071
0.90552609
0.90659741
0.90874185
0.91200847
0.91617889
0.91958856
0.92406383
0.93031562
0.93851822
0.94661343
0.95566046
0.96475337
0.97251092
0.97578323
0.97605682
0.97385235
0.97036715
0.96579241
0.96392962
0.96592166
0.97118069
0.97649254
0.9811341
0.98274094
0.97954779
0.97054557
0.95915976
0.94796252
0.93873705
0.93167689
0.9281928
0.92717481
0.9266472
0.92498941
0.92383354
0.92424507
0.92678191
0.93159099
0.93985738
0.95056298
0.96136242
0.97043025
0.97831725
0.98523429
0.99105239999999994
0.9964369
1.0030397
1.0106797
1.0174255
1.0220117
1.0243736
1.0239701
1.019878
1.013245
1.0062714
1.0000296
0.99378799
0.98777492
0.98199954
0.97540979
0.96596308
0.95431034
0.9419505
0.93023973
0.91932517
0.91136662
0.90755508
0.90763281
0.90924742
0.91240836
0.91670474
0.92156118
0.9252667
0.92933755
0.93452932
0.94100542
0.94695712
0.95351321
0.96044947
0.96717012
0.97142491
0.97477592
0.97746455
0.97960582
0.97947188
0.97921007
0.97897482
0.97858015
0.9762805
0.97393729
0.97154116
0.9686631
0.96363435
0.95799954
0.95157698
0.94391022
0.93406383
0.92440101
0.91603177
0.9096987
0.90550775
0.90567987
0.91019816
0.91760687
0.92561239
0.93400765
0.9415128
0.94681038
0.94946874
0.95163788
0.95439284
0.95767944
0.96120896
0.96572401
0.97040241
0.97352347
0.97445684
0.97441397
0.97381133
0.97205952
0.96939463
0.96675749
0.96383475
0.95922952
0.95317661
0.94687861
0.94073619
0.93388615
0.92691617
0.92049041
0.91431961
0.90702175
0.89961186
0.89359976
0.89005272
0.88862075
0.89080147
0.89708593
0.90646468
0.91578322
0.92424699
0.93088039
0.93496019
0.93511235
0.93375241
0.93282832
0.93358862
0.93479568
0.93767988
0.94165901
0.9456702
0.94717118
0.94786724
0.94834695
0.94895484
0.94775507
0.94634227
0.94421263
0.94083247
0.93469912
0.92845168
0.92309457
0.9188872
0.91418968
0.90990427
0.90518978
0.89941515
0.89221463
0.88699745
0.88580581
0.88935955
0.89639461
0.90670728
0.91801022
0.92786585
0.93495423
0.94168144
0.94997126
0.96073031
0.97363363
0.98862672
1.0032854
1.0143478
1.020004
1.0216112
1.0206475
1.018193
1.0156376
1.014698
1.0150269
1.0147581
1.0130493
1.0102978
1.00613
0.9991645
0.98931667
0.97726055
0.96327323
0.94733246
0.93179496
0.91951468
0.91186892
0.90767166
0.90619626
0.90592022
0.90483398
0.90081418
0.895546
0.89164763
0.8911924
0.89370385
0.89954712
0.90712004
0.91375509
0.91577322
0.91395544
0.90980798
0.9052988
0.90055729
0.89814889
0.89824146
0.89978206
0.89966533
0.89897224
0.89780827
0.89643858
0.89320091
0.89012899
0.88689987
0.88279663
0.87583245
0.86821492
0.86079738
0.85426988
0.84796516
0.8441678
0.84305799
0.84417515
0.84618568
0.85072899
0.85775261
0.86660274
0.876285
0.88632792
0.89550315
0.90355821
0.91222891
0.92479296
0.94275517
0.96500441
0.98814042
1.0075838
1.0187007
1.0200003
1.0150479
1.0103777
1.0108029
1.0166919
1.0242556
1.0272403
1.0206084
1.004899
0.98786173
0.979294
0.98394837
0.99723355
1.0073873
1.0009396
0.97189934
0.92854828
0.8933183
0.89049603
0.93099534
1.0012933
1.0648876
1.0735804
