1.2958692
1.283675
1.2239597
1.1345233
1.0438376
0.97657419
0.94387237
0.93966707
0.94710163
0.95420637
0.95843743
0.96135575
0.96569739
0.97041435
0.96968053
0.96117669
0.94872918
0.93837392
0.93695984
0.94736144
0.9635308
0.97453275
0.96889073
0.93731657
0.88021585
0.8101884
0.74511996
0.70240231
0.68793712
0.68965634
0.68901157
0.67301293
0.64448688
0.62786719
0.65241057
0.72921339
0.84420369
0.96322771
1.0496647
1.0880487
1.0888433
1.0742118
1.063763
1.0637453
1.0663783
1.0636843
1.0556785
1.0458195
1.0380771
1.0339216
1.0289446
1.0200695
1.0099518
0.99924833
0.9853301
0.9648435
0.93230263
0.88720293
0.8384175
0.79418756
0.75763631
0.72898339
0.70326268
0.67636884
0.65196969
0.63399999
0.62326438
0.61971886
0.6190099
0.61713795
0.61753138
0.62401342
0.63908333
0.66634972
0.70360703
0.7459293
0.79307669
0.84306933
0.89196997
0.93854056
0.97753838
1.0023389
1.0137486
1.0142714
1.0081776
1.0050423
1.0097851
1.0207266
1.0357359
1.0482141
1.0498521
1.039078
1.0161217
0.98081261
0.93763543
0.89072119
0.84233602
0.79826977
0.7629765
0.73623131
0.71765626
0.70455415
0.69194036
0.67913787
0.66758868
0.65761862
0.65118201
0.64840811
0.64590721
0.64286458
0.64006467
0.63805958
0.64074922
0.65106378
0.66758083
0.68969076
0.71730702
0.7500584
0.79130448
0.84372045
0.90329488
0.96231139
1.0105125
1.0374939
1.0413926
1.0290642
1.0094755
0.99171746
0.98093184
0.97383242
0.96443146
0.9494058
0.92664551
0.89809536
0.87015081
0.84676671
0.82948313
0.81893867
0.81114324
0.8010085
0.78725462
0.76910781
0.74768453
0.72803079
0.7127474
0.7018433
0.69560424
0.69057212
0.68227684
0.67067297
0.65689201
0.6444922
0.64152141
0.65240537
0.67720504
0.71591273
0.76406404000000006
0.81588306
0.86928519
0.91838386
0.95412791
0.97165953
0.96808556
0.94639355
0.92033145
0.90241299
0.8974666
0.90615532
0.92020557
0.92784561
0.92579242
0.91393411
0.89253923
0.86603884
0.83636881
0.80345831
0.77228832
0.74729757
0.72924575
0.71866626
0.7121882
0.70409682
0.69384678
0.6831539
0.67314076
0.66669272
0.66413218
0.66223863
0.66048534
0.6594237
0.65959412
0.66584328
0.68287305
0.71202331
0.75460406
0.80786107
0.86331239
0.91312924
0.95070544
0.97096026
0.97528504
0.96814571
0.952109
0.93002995
0.90362431
0.87245034
0.83932106
0.8097769
0.78755499
0.77550633
0.77410003
0.77840027
0.78287672
0.78447268
0.78033382
0.77063085
0.75916029
0.74826688
0.73990724
0.73636547
0.73588769
0.73522877
0.73315339
0.72791574
0.71972534
0.71226234
0.70693513
0.70344609
0.702258
0.70129161
0.69911586
0.69787036
0.69759579
0.69757522
0.69973751
0.70445602
0.71298385
0.73041532
0.7582607
0.7934408
0.83168072
0.86423107
0.88239241
0.88537406
0.87619406
0.86040765
0.84730346
0.84052745
0.8368193
0.83324559
0.82477782
0.80713572
0.78460053
0.76167635
0.7395629
0.72112705
0.70523863
0.68830048
0.6723836
0.65966118
0.6499707
0.64525535
0.64478713
0.64541149
0.6478744
0.65221749
0.65574918
0.65786544
0.65770714
0.65474256
0.65364201
0.65850129
0.66859488
0.68238626
0.69655341
0.70865491
0.72390493
0.74978445
0.78922209
0.84093775
0.89694654
0.94481085
0.97711813
0.9921899
0.99107601
0.97877439
0.96072306
0.93971372
0.9194018
0.90284456
0.88845968
0.87313691
0.85413209
0.82892982
0.7999691
0.77387213
0.75447737
0.74247269
0.73610559
0.73034599
0.72260328
0.71509039
0.70974883
0.70786084
0.70999746
0.71320394
0.71504873
0.71659621
0.71836437
0.72080908
0.7249621
0.72847662
0.72910367
0.72861061
0.72888792
0.73311878
0.74625456
0.76777686
0.79316008
0.81866093
0.83886163
0.85063682
0.85708605
0.86040792
0.86075635
0.85908348
0.85275361
0.83861807
0.81902732
0.79629204
0.77160495
0.74895047
0.72933681
0.71153504
0.69816003
0.68956723
0.68293375
0.67830464
0.67365077
0.66616514
0.6589599
0.65460694
0.6529839
0.65575814
0.66107136
0.66429624
0.66512387
0.66376035
0.65992344
0.65673659
0.65510775
0.65268024
0.65000089
0.64786736
0.6472914
0.65359724
0.67000868
0.69411347
0.72225441
0.74814554
0.76498318
0.77254124
0.77435879
0.77384922
0.77563662
0.78191597
0.79089819
0.80173655
0.81361348
0.82343114
0.82905237
0.82856489
0.81898922
0.80109353
0.77921725
0.75711126
0.73887975
0.7270964
0.71964179
0.71393325
0.70894931
0.70308835
0.69690683
0.69313853
0.69234485
0.69446378
0.69935589
0.7035964
0.70394906
0.70053841
0.6944203
0.68889152
0.68831761
0.6915371
0.69410142
0.69394046
0.69186572
0.69457294
0.71219765
0.74631197
0.78722526
0.82023077
0.83112215
0.8172385
0.79211765
0.77255453
0.76844699
0.78036261
0.79721275
0.80588397
0.80339438
0.79249247
0.77737213
0.76380515
0.75192483
0.73870933
0.72652923
0.71784163
0.71292696
0.71310463
0.71477429
0.71153891
0.70295829
0.69015154
0.67488023
0.66292692
0.65667268
0.65411836
0.65506084
0.65795543
0.66090089
0.66693034
0.67810201
0.69329516
0.71292972
0.73536495
0.7580006
0.78281964
0.8110494
0.83998596
0.86673084
0.88597194
0.89188076
0.88502643
0.86899446
0.84677706
0.82293778
0.80027397
0.77889347
0.76156609
0.75130083
0.74734655
0.74814286
0.75030913
0.74811872
0.73999969
0.72857962
0.71645556
0.70728128
0.7033946
0.70247101
0.70194829
0.70066126
0.69674827
0.69068899
0.68495256
0.68000967
0.67657236
0.67577518
0.67607829
0.67671908
0.67914218
0.68388162
0.69288841
0.70917411
0.7318205
0.75856654
0.78838479
0.81910366
0.85008139
0.88252783
0.91326658
0.93598503
0.94573916
0.93887597
0.91758122
0.89175653
0.87012063
0.85641992
0.85057367
0.8460397
0.83537818
0.81824023
0.79654262
0.77268013
0.751434
0.73371399
0.71784451
0.70575221
0.69742067
0.69016054
0.68392274
0.67687552
0.66697228
0.65780544
0.65163307
0.64739928
0.64595142
0.64573032
0.6446649
0.64587223
0.65014596
0.6543938
0.65801357
0.66047727
0.66413564
0.67854525
0.70945576
0.75285533
0.79923569
0.83444571
0.84795933
0.84337071
0.83213828
0.82485498
0.82870741
0.84127631
0.85252299
0.85590328
0.84906388
0.83162757
0.80738115
0.78010016
0.75149109
0.72560695
0.70619326
0.69291862
0.68419712
0.67682054
0.66624392
0.65254588
0.63972641
0.63097069
0.62906815
0.63407189
0.64090327
0.64477094
0.64393057
0.63890392
0.63530852
0.64144808
0.66192802
0.69806166
0.7474875
0.80251775
0.85495838
0.89753767
0.92112768
0.91921367
0.89210915
0.84640196
0.79675495
0.76113497
0.74855818
0.756283
0.77404926
0.78855958
0.79353585
0.79404555
0.79652028
0.80237188
0.80826871
0.80560234
0.78880474
0.76305483
0.7368647
0.71624062
0.70396412
0.6954904
0.68431554000000006
0.67073015
0.65710226
0.64517232
0.63783157
0.63363674
0.62901643
0.625306
0.62304041
0.62085574
0.62054117
0.62141921
0.62233272
0.62826029
0.64222708
0.66341917
0.69162348
0.72291595
0.75179218
0.7779694
0.80066519
0.81698108
0.82655089
0.82794602
0.82035783
0.80945772
0.80118973
0.79791607
0.80094082
0.80682378
0.80873402
0.80434709
0.79381736
0.77744913
0.75903704
0.74230115
0.72868865
0.72108447
0.72022084
0.72150517
0.7201159
0.71261924
0.69807134
0.68235999
0.67342594
0.67345667
0.67972753
0.68585438
0.68448752
0.67521619
0.66373148
0.65482726
0.6515893
0.65407404
0.65937902
0.66849173
0.68634318
0.71534083
0.75429077
0.79735782
0.83396485
0.85675557
0.86554898
0.86346064
0.85629124
0.85030846
0.84667609
0.84439559
0.84406196
0.84426195
0.84366699
0.84386989
0.84434886
0.84393991
0.84396647
0.84275612
0.83707777
0.82684331
0.81141854
0.791279
0.77109087
0.75298313
0.73608014
0.72089383
0.7058207
0.68931702
0.67471938
0.6641621
0.65773457
0.6580105
0.66570727
0.68093667
0.70807324
0.74786954
0.79580395
0.84755254
0.89506012
0.93038543
0.95407543
0.9684614
0.97533487
0.97878164
0.97809286
0.96898534
0.95193902
0.9283837
0.9003209
0.87488528
0.85660979
0.84475132
0.83914006
0.83631858
0.83017303
0.81983579
0.8064215
0.79084761
0.777456
0.7687356
0.76264369
0.75775518
0.75189698
0.74179124
0.72827306
0.71384434
0.69966921
0.68858325
0.68208364
0.67822432
0.67696837
0.67931145
0.68575827
0.69997565
0.72474084
0.75764309
0.79528815
0.83371669
0.86839782
0.89940093
0.92903363
0.95609393
0.97763365
0.98963759
0.98713712
0.97039664
0.94538633
0.91775652
0.89230105
0.87194663
0.85474741
0.83873801
0.82502447
0.81348494
0.80365349
0.79577586
0.78676299
0.77375351
0.7582714
0.74223461
0.72835954
0.72086747
0.71907726
0.71870087
0.71718298
0.7120209
0.70355402
0.69713171
0.69525163
0.69633467
0.6989379
0.69977889
0.69810956
0.6998756
0.70872121
0.72355726
0.74267761
0.76093451
0.77503815
0.7897231
0.80844056
0.82942148
0.84937462
0.8607109
0.85764217
0.84539089
0.83233439
0.82455893
0.82614228
0.8323548
0.83305997
0.82392924
0.80449324
0.77707684
0.74957705
0.72713838
0.70942028
0.6964896
0.68627967
0.67540823
0.66497617
0.65645173
0.64936416
0.64499235
0.64291005
0.64033242
0.63759547
0.63567867
0.63411478
0.63446604
0.63699634
0.63908236
0.64062669
0.64274423
0.64612991
0.65479373
0.67257429
0.69949587
0.73495429
0.77609543
0.81623659
0.84998287
0.87334731
0.88214509
0.8761127
0.85837404
0.83225429
0.80344577
0.77842075
0.75973198
0.7479839
0.74285169
0.74098781
0.74004956
0.74077476
0.7424264
0.74410759
0.74642583
0.74809614
0.74854322
0.74972287
0.75101524
0.75024514
0.74685699
0.73966258
0.72948898
0.72086348
0.71532025
0.71105465
0.70689458
0.70099661
0.69425628
0.69227456
0.69671519
0.70401638
0.71088687
0.71443537
0.71777503
0.73263512
0.76672008
0.81691907
0.87208744
0.91408951
0.92854805
0.91678328
0.88927143
0.85830485
0.83530707
0.82167472
0.81117432
0.80088084
0.78891638
0.77466859
0.76238246
0.7530759
0.74350313
0.73347894
0.72229761
0.709098
0.69778005
0.69061573
0.68599059
0.68346319
0.68078438
0.67468913
0.66726819
0.66188559
0.66014459
0.66483022
0.67563276
0.68832833
0.70104617
0.7124674
0.72038338
0.72565108
0.72809772
0.72517375
0.71818452
0.71128527
0.70968275
0.72113161
0.74930941
0.78823814
0.8267069
0.85201311
0.85489701
0.83766979
0.81198483
0.79006601
0.78079224
0.78563571
0.79766671
0.8093348
0.81665589
0.81744581
0.8125814
0.80452463
0.79335138
0.77967763
0.76617768
0.7538055
0.74318316
0.73550028
0.72902898
0.72199842
0.71500967
0.70716014
0.69790725
0.68927414
0.6818593
0.67636464
0.67519843
0.67735748
0.67980795
0.68124319
0.67944187
0.67405146
0.66939675
0.6680167
0.67032662
0.67738564
0.68671718
0.69501328
0.70324975
0.7117275
0.72004342
0.73033425
0.74147263
0.75026191
0.75726339
0.76188021
0.76264236
0.7621868
0.76065502
0.75523816
0.74710753
0.73612952
0.72135279
0.70651541
0.69351341
0.68122229
0.67089354
0.66197856
0.65257565
0.64499499
0.6407503
0.63873007
0.63947019
0.64125939
0.6402977
0.63682372
0.63234357
0.62800172
0.6275025
0.6320892
0.63873299
0.64620843
0.65494748
0.66700366
0.68857803
0.72281144
0.76400105
0.8019991
0.82544096
0.82723202
0.81216041
0.79201262
0.77601813
0.76824554
0.76584565
0.76194469
0.75473797
0.74801568
0.74498692
0.74664996
0.75024055
0.74961929
0.74265336
0.73314842
0.72544039
0.72269782
0.72509586
0.7281204
0.72823107
0.72599112
0.72245177
0.71907267
0.71723695
0.71479744
0.70952104
0.70241775
0.69385804
0.68450681
0.67687614
0.67064478
0.6649563
0.6616964
0.66100287
0.66291331
0.67005657
0.6822634
0.69737678
0.71443113
0.72903517
0.73571974
0.73375161
0.72339155
0.70672271
0.69069067
0.67921152
0.67191383
0.66970227
0.67067775
0.67231019
0.67860015
0.69285959
0.71500814
0.74592357
0.78048395
0.80900437
0.82653584
0.82996888
0.81935292
0.8024725
0.78605862
0.77220835
0.7629509
0.75698525
0.75163664
0.74939074
0.75194366
0.75705365
0.76338759
0.76908536
0.77385617
0.78400585
0.80444237
0.83272493
0.86340638
0.8898905
0.90955006
0.92901141
0.95448599
0.98127152
0.99602303
0.983332
0.93746226
0.8729213
0.81523134
0.78264115
0.77801811
0.7884082
0.79562244
0.79375874
0.79011534
0.79290109
0.8042076
0.81675057
0.81816612
0.80496752
0.78567992
0.77094838
0.76704162
0.77165526
0.77464353
0.76929437
0.75769423
0.74481842
0.73560487
0.73224773
0.73131668
0.73019126
0.73031914
0.73178842
0.73406031
0.73771474
0.74223539
0.75049114
0.76918141
0.79990049
0.83837291
0.878362
0.91211914
0.93633965
0.95474114
0.96870259
0.97449471
0.96754496
0.94330236
0.90442613
0.86523389
0.83972309
0.83353571
0.84411515
0.85831571
0.86156841
0.85115285
0.83197764
0.81218149
0.80157307
0.80117247
0.80371533
0.8037564
0.79633583
0.77915924
0.75831242
0.73959633
0.7256165
0.71974128
0.72030808
0.72194679
0.7235105
0.72452983
0.72496686
0.72912708
0.73798554
0.74802708
0.75836945
0.76828554
0.77834491
0.79455263
0.81953979
0.84823339
0.87317532
0.88532912
0.87905002
0.8599448
0.83876196
0.82356884
0.81877831
0.8214054
0.82339238
0.82090193
0.81392562
0.80267189
0.78909993
0.7741801
0.75696622
0.73995059
0.72705726
0.71845119
0.71246713
0.70627733
0.69673369
0.68620876
0.68098192
0.68394608
0.69399737
0.70626136
0.71315376
0.71191006
0.70616025
0.69997245
0.69653331
0.69661317
0.69646475
0.69372874
0.69025784
0.68792101
0.68916598
0.69667893
0.70940602
0.72563462
0.74521159
0.76541598
0.78270495
0.79337199
0.7942745
0.78753583
0.7798207
0.77565756
0.77509177
0.7741806
0.76756227
0.75523749
0.74283871
0.73337171
0.72403095
0.7095413
0.68799546
0.66762903
0.66206313
0.67351019
0.68657376
0.67969332
0.64454437
0.6016981
0.59020624
0.62994182
0.69435008
