0.70898812
0.7312948
0.77095073
0.7948049
0.79156019
0.77332629
0.76114689
0.76942503
0.79629914
0.82723113
0.84764884
0.85451144
0.85481131
0.85717355
0.86741778
0.88373535
0.89954872
0.91006094
0.91587558
0.92022535
0.92497696
0.93103594
0.93686725
0.93992504
0.94063302
0.94148844
0.94409213
0.94772415
0.95121341
0.95255458
0.94886379
0.94294541
0.93689225
0.93129929
0.92704436
0.92397038
0.91964518
0.91105836
0.89947876
0.88609981
0.87115608
0.85750863
0.84640767
0.83652256
0.82619503
0.81569629
0.80469148
0.79170175
0.78026438
0.77210034
0.76704386
0.76577659
0.76849214
0.77332976
0.77769511
0.78256395
0.7880347
0.79332451
0.80096213
0.81223423
0.82623505
0.84174463
0.85846521
0.87450802
0.88652644
0.89613833
0.90377029
0.90920063
0.91422556
0.92059568
0.92780779
0.93384197
0.93933116
0.94337519
0.94403589
0.94325085
0.94262615
0.94208726
0.94120852
0.94052744
0.93858436
0.93177947
0.92146513
0.90817895
0.89200361
0.87510657
0.86011112
0.84744262
0.83558047
0.82543355
0.81625878
0.80601085
0.79627296
0.78852662
0.78288311
0.77945082
0.77965063
0.78319344
0.78766081
0.79497717
0.80516553
0.81683357
0.83009586
0.84517493
0.86080751
0.87528105
0.8900679
0.90510542
0.91871424
0.93189188
0.94439581
0.95459439
0.96182294
0.96749335
0.97209641
0.97448267
0.9773476
0.98081386
0.98316325
0.98416168
0.98396019
0.98155456
0.97564866
0.96851199
0.96121043
0.95316422
0.94631151
0.94102181
0.93517341
0.92631537
0.91407212
0.89789534
0.87670527
0.85492448
0.83540675
0.81864518
0.8052071
0.79491398
0.78567553
0.77504058
0.76484791
0.75612372
0.74825626
0.74329449
0.74182911
0.74263838
0.74522911
0.75135616
0.76149484
0.7737904
0.79000317
0.80898494
0.82793678
0.84620277
0.86398103
0.88048285
0.89453222
0.9078149
0.92015456
0.92992848
0.93873397
0.94730293
0.95485486
0.96096088
0.96659177
0.97144435
0.97370535
0.97593295
0.97852895
0.979963
0.9797959
0.97797333
0.97356248
0.96565426
0.95710413
0.94909631
0.9401281
0.93048969
0.9194337
0.90532399
0.88804471
0.87053215
0.85463913
0.83916353
0.82573995
0.81337764
0.7999248
0.78598704
0.7738469
0.76459341
0.75765814
0.75435714
0.75351818
0.7524386
0.75258467
0.75565329
0.76221344
0.7727901
0.78852689
0.80818957
0.82835895
0.85012613
0.87282023
0.89458549
0.91521119
0.93444223
0.95061419
0.96202269
0.97060283
0.97713643
0.98104606
0.98438142
0.9876255
0.98937118
0.98864611
0.98629268
0.9821715
0.9746412
0.96641175
0.95839868
0.95014788
0.94265379
0.93703883
0.93250173
0.92686136
0.92064063
0.91300104
0.90184933
0.88849264
0.8739588
0.85779313
0.83963899
0.821084
0.80295652
0.78465041
0.77008217
0.76065885
0.75488077
0.75148224
0.74912858
0.74580948
0.7405348
0.73727209
0.73865138
0.74442846
0.75563292
0.77082
0.78680834
0.80198174
0.81762095
0.8338989
0.84844021
0.86219791
0.87379012
0.88165465
0.88790274
0.89611884
0.90793169
0.92222315
0.93826059
0.95230995
0.95984561
0.96171981
0.96040406
0.95810077
0.95681609
0.95841181
0.96163303
0.96256871
0.96185524
0.95937287
0.95449884
0.94832346
0.94209037
0.93514377
0.92566127
0.91488687
0.90292874
0.88853751
0.87341174
0.85867303
0.84395648
0.82913618
0.81587074
0.80454278
0.79345809
0.7850525
0.77967894
0.77608716
0.77461427
0.77604492
0.77979287
0.78463115
0.79230804
0.80266778
0.81358292
0.82563092
0.83824873
0.84955426
0.85867596
0.86687702
0.87447387
0.88018764
0.88672604
0.89422437
0.90099366
0.90691667
0.91229858
0.91648641
0.91871895
0.92136732
0.92469314
0.92663364
0.92768527
0.92772152
0.92604547
0.92336022
0.92236217
0.92345884
0.92330784
0.92126197
0.91473709
0.9013454
0.88278954
0.86334301
0.84616509
0.83195051
0.82205854
0.81455361
0.8055712
0.79541333
0.78536305
0.77619538
0.76885361
0.76511578
0.76453004
0.76440169
0.76666309
0.77166145
0.77834243
0.78686523
0.79722462
0.80793905
0.81740052
0.82760977
0.83914567
0.85064857
0.86294696
0.87542285
0.88624926
0.8949301
0.90322007
0.91162632
0.91835128
0.92494513
0.93070005
0.93409873
0.93622867
0.93890295
0.94198093
0.94346937
0.94353392
0.94100443
0.93439525
0.92667866
0.92065201
0.91656759
0.91285873
0.90804957
0.89931787
0.88356939
0.86448623
0.84571947
0.82930251
0.81692144
0.80852902
0.80133791
0.79198646
0.78172432
0.77173782
0.7620384
0.7550834
0.75158896
0.75015277
0.74991757
0.75242472
0.75833577
0.76629041
0.77838594
0.79380073
0.80989439
0.82591158
0.84190196
0.85701825
0.87010629
0.88288693
0.89530539
0.90583987
0.91600484
0.92636604
0.93598886
0.9443161
0.95214969
0.95903594
0.96300641
0.966152
0.96835237
0.96780147
0.96422412
0.95824939
0.95021608
0.94074097
0.93349108
0.9294238
0.92577452
0.92074685
0.9115874
0.89578842
0.8739701
0.85096381
0.83096792
0.81459151
0.80378509
0.79645816
0.78851451
0.77863285
0.76795983
0.75749903
0.74734517
0.73974747
0.73423631
0.72828383
0.72316651
0.72038762
0.72050434
0.72428062
0.73338693
0.74698516
0.76157415
0.77791473
0.79489793
0.81044135
0.82464114
0.83811636
0.85018232
0.85972045
0.86873161
0.87758417
0.88509958
0.89293685
0.90157926
0.90985344
0.91700665
0.92396868
0.93062046
0.93534483
0.94057807
0.94652258
0.95141516
0.95462717
0.9562
0.95570139
0.95294026
0.95108107
0.95109067
0.95061877
0.94839956
0.94207162
0.92906221
0.90941089
0.88720943
0.8662628
0.84748549
0.83366762
0.82384607
0.81483997
0.80556746
0.79667775
0.78842475
0.780464
0.7749567
0.77190772
0.769579
0.76956053
0.77299018
0.77950048
0.7885969
0.80058081
0.81392091
0.82545048
0.83669047
0.8476693
0.85732246
0.86622578
0.87499124
0.88286549
0.88884837
0.89499663
0.90145791
0.90630874
0.91007764
0.91229134
0.91171498
0.90868653
0.90577333
0.90391569
0.90120507
0.89882884
0.89571402
0.89009623
0.88303815
0.87689675
0.87238177
0.86810828
0.86417197
0.85846608
0.847851
0.83364968
0.81818031
0.80302429
0.78952033
0.77950231
0.77232208
0.76480899
0.75824763
0.75267155
0.74716198
0.74252422
0.73984717
0.73865073
0.73778768
0.73940248
0.74410512
0.75070813
0.76057402
0.77371532
0.78842416
0.80344325
0.81913273
0.83447286
0.84664608
0.85703176
0.86546395
0.87121606
0.87592466
0.88171256
0.88889454
0.89628782
0.90459243
0.91247206
0.91730067
0.92002743
0.92152964
0.92166495
0.92058799
0.91972118
0.91883544
0.91563973
0.91192751
0.90784487
0.90216289
0.89501299
0.88694159
0.87718568
0.86440388
0.85068542
0.83707433
0.8230828
0.81078399
0.80117162
0.79328476
0.78606495
0.78008695
0.77480753
0.76802052
0.76204528
0.75753881
0.75386499
0.75203054
0.75336048
0.75762472
0.76371873
0.77322084
0.78570093
0.79881145
0.81289927
0.82743766
0.84087608
0.8527508
0.86450369
0.87626272
0.88613287
0.89575238
0.90445159
0.91039153
0.9139004
0.916095
0.91704186
0.91618737
0.9155557
0.91519717
0.91336218
0.91118379
0.90919967
0.90669322
0.90334185
0.90041542
0.89764119
0.89248514
0.88631697
0.87874328
0.86820825
0.85506865
0.84068039
0.82533469
0.80856312
0.79289003
0.77923353
0.76660988
0.75661028
0.74975917
0.74470494
0.74019458
0.73684684
0.73449412
0.73174398
0.73192216
0.73626564
0.74392511
0.75480603
0.76850656
0.78324451
0.79720979
0.81209282
0.82797283
0.84287458
0.85710818
0.86996508
0.88010167
0.88793813
0.89623445
0.90609895
0.91552544
0.9250384
0.93254621
0.93540336
0.93437402
0.93209168
0.93007944
0.9280768
0.92717514
0.92589333
0.9213504
0.91460354
0.90718382
0.89949517
0.89147747
0.88366233
0.87472079
0.86171956
0.84682815
0.83163472
0.81677899
0.80389605
0.79418381
0.78661122000000006
0.7789857
0.77239226
0.76697469
0.76164421
0.75829842
0.75785526
0.75947107
0.76253345
0.76810103
0.77598169
0.78418876
0.79471778
0.80719851
0.81954348
0.83116674
0.84181947
0.85032103
0.85565272
0.86027972
0.86523201
0.86979544
0.87562016
0.88283871
0.88990782
0.89591222
0.90175095
0.90718235
0.91015933
0.91253947
0.9141259
0.91349396
0.91114738
0.90834748
0.9051181
0.90052552
0.89612288
0.8914832
0.88427114
0.87500675000000006
0.86397469
0.85064272
0.83529162
0.82019747
0.80630454
0.79224538
0.78030198
0.77072679
0.76237186
0.75573827
0.75176402
0.74976523
0.74797493
0.74746682
0.74793371
0.74799884
0.74977461
0.75472446
0.76247661
0.77230601
0.78430379
0.79693406
0.80725008
0.81706769
0.82682372
0.83585011
0.84491826
0.854574
0.86366706
0.87054249
0.87667505
0.88222626
0.88597718
0.88944559
0.89301065
0.89550169
0.89627046
0.89646402
0.89609936
0.8933824
0.89043762
0.88742274
0.88307915
0.87774592
0.87244009
0.8669637
0.86022004
0.85378031
0.84730645
0.83841984
0.82756623
0.81514652
0.8010651
0.78637873
0.774296
0.76623169
0.76031064
0.75750907
0.75620931
0.75361128
0.749603
0.74584218
0.74334044
0.74228352
0.74529465
0.75251812
0.7618136
0.77375921
0.78803156
0.80281972
0.81673827
0.83010864
0.8422567
0.8513128
0.85999927
0.86921002
0.87823652
0.88744119
0.89697917
0.90562029
0.9119882
0.91804366
0.92440301
0.92988566
0.93550849
0.94091159
0.94422499
0.94439732
0.94273607
0.93988944
0.93482452
0.93022805
0.92655495
0.92243376
0.91772414
0.91274273
0.90648049
0.89714292
0.88610289
0.87356825
0.85840185
0.84267975
0.82803095
0.81442311
0.80165699
0.79093437
0.78184616
0.7718743
0.76316337
0.75628103
0.75059839
0.74728998
0.74794822
0.75241238
0.7592885
0.76983338
0.78302673
0.79578346
0.80808458
0.81956923
0.82937899
0.83811486
0.84832239
0.86057738
0.87249202
0.88477856
0.89586322
0.90374066
0.90959599
0.91596158
0.92400101
0.93324845
0.94462337
0.95642819
0.96545111
0.97213398
0.97690867
0.97914467
0.97848311
0.97606532
0.97206168
0.96545626
0.95965077
0.95580506
0.95229375
0.94732672
0.93889962
0.92460619
0.90350923
0.88006619
0.85841956
0.84019276
0.8274943
0.81928989
0.81186945
0.80237802
0.79140004
0.77995052
0.76791697
0.75907844
0.75426092
0.75197703
0.75203381
0.75473407
0.75935581
0.76481864
0.77290271
0.78336318
0.79400646
0.80537261
0.81700594
0.82731375
0.83579965
0.84393881
0.85203859
0.85863529
0.86613368
0.87444828
0.8818992
0.88851311
0.89460217
0.89914976
0.90070085
0.90106955
0.90071619
0.89875493
0.89725371
0.89705592
0.89673538
0.89445037
0.88988683
0.88195095
0.86864544
0.85333651
0.83819497
0.82369798
0.81090647
0.80046042
0.79105555
0.7806055
0.7707362
0.7621995
0.75418646
0.74844717
0.74546451
0.7437604
0.74214033
0.74165768
0.7426441
0.74384536
0.74831071
0.75673514
0.76777247
0.78112607
0.7965369
0.81235601
0.82662083
0.84079052
0.85503043
0.86806513
0.88137362
0.89524819
0.90836656
0.91988492
0.93059426
0.94008885
0.94632641
0.95132479
0.95525421
0.9571652
0.95790839
0.9587519
0.95943325
0.95864937
0.95777869
0.95669694
0.9538245
0.95055839
0.94757295
0.94369708
0.93750816
0.92918583
0.91806697
0.90234999
0.88521199
0.86853157
0.85249336
0.83799674
0.82570778
0.81454877
0.80276904
0.79218983
0.78339047
0.77513767
0.76881512
0.76470941
0.76166442
0.75937768
0.75973662
0.76337206
0.76868087
0.77769915
0.78985717
0.80312231
0.81752514
0.83367602
0.85075726
0.867034
0.88318889
0.89791293
0.90860594
0.9163494
0.92201506
0.92556025
0.92761247
0.93009876
0.93313646
0.93466759
0.93662975
0.93882559
0.939652
0.93921834
0.9381942
0.93608951
0.93183861
0.92724673
0.92215803
0.91425396
0.90380724
0.89083994
0.87498375
0.85730902
0.84121204
0.82838726
0.8172099
0.8086453
0.80111039
0.79197945
0.78142581
0.7714679
0.76333697
0.75706698
0.75477335
0.75601271
0.75828216
0.76241328
0.76889881
0.77699854
0.78624186
0.79732172
0.80910998
0.81862438
0.8274551
0.83565334
0.84233063
0.84844863
0.85507725
0.86168841
0.86711965
0.87307885
0.87959188
0.88512075
0.89094203
0.89729993
0.90303881
0.90760006
0.91206377
0.91618272
0.91784963
0.91890052
0.9193948
0.91824557
0.91612239
0.91417867
0.91199434
0.90795444
0.9029813
0.89639651
0.88611905
0.87334429
0.85922495
0.84393988
0.82808853
0.81381197
0.80162288
0.78966241
0.77984809
0.77205956
0.76477088
0.75822291
0.75335252
0.7499348
0.74713161
0.74699552
0.74967881
0.75339687
0.75899932
0.76646214
0.77462374
0.78319696
0.79363126
0.805891
0.81775612
0.83048478
0.84300853
0.85311983
0.86088109
0.86726731
0.87235887
0.87576684
0.8796416
0.88395548
0.88667909
0.88863245
0.89003086
0.8901308
0.88905808
0.88875432
0.88954184
0.88919086
0.88890936
0.88766869
0.88309783
0.87487051
0.8639866
0.85081506
0.83527618
0.82032663
0.80708028
0.7943837
0.78340808
0.77446536
0.76642868
0.75860014
0.75225032
0.74742939
0.742141
0.73856472
0.73719126
0.73739395
0.74038852
0.74770503
0.75886089
0.77179027
0.78671968
0.80210433
0.81533983
0.82753798
0.83959687
0.85118402
0.8621521
0.87341144
0.88432316
0.89272519
0.90075932
0.90883709
0.91601079
0.92265546
0.92910651
0.9343904
0.93730367
0.93974788
0.94207305
0.94271738
0.94238392
0.94084193
0.93685238
0.93030966
0.92351022
0.917723
0.91172438
0.90710824
0.90258881
0.89496812
0.88294217
0.86706316
0.84817919
0.82747351
0.80926393
0.79536092
0.78415871
0.77544972
0.76787019
0.75936619
0.74969023
0.7414716
0.73602038
0.7316765
0.72986387
0.72964726
0.73018947
0.73290123
0.73893957
0.74848284
0.76161734
0.77868694
0.79735801
0.81381345
0.82632654
0.83391964
0.83846451
0.84564818
0.86052883
0.8819648
0.90200069
0.9123634
0.90803722
0.89409565
0.88554784
0.89508305
0.92147459
0.94791663
0.95305274
0.9266691
0.88287531
0.85646605
0.87654378
0.94016282
1.0039234
