0.8166974
0.807322
0.82851753
0.86065864
0.88292593
0.88770375
0.88167903
0.88063889
0.89826462
0.94089453
1.0023266
1.0678249
1.1204564
1.1517473
1.1619907
1.1585692
1.1498594
1.1440655
1.1441002
1.1483725
1.1522024
1.1540437
1.1541018
1.1540704
1.1546812
1.1577134
1.1628442
1.1681049
1.1698653
1.1669069
1.158487
1.1445247
1.1246766
1.1008395
1.0746792
1.0472854
1.0186997
0.99109677
0.96519947
0.94163103
0.92129195
0.90818017
0.90507428
0.91343732
0.93276033
0.96280907
1.0001671
1.039668
1.0758547
1.1069072
1.1314553
1.1491426
1.1606141
1.1694018
1.1770081
1.1831514
1.1866554
1.188399
1.1877614
1.1838132
1.1765341
1.1687926
1.1619046
1.1556372
1.1490099
1.1420877
1.1326793
1.1176663
1.0953477
1.0676019
1.036738
1.0055721
0.9778912
0.95802524
0.94671342
0.94123981
0.93780648
0.93385769
0.9272762
0.91796714
0.90955095
0.90856406
0.91978735
0.94415881
0.97950504
1.0215493
1.0633826
1.0978112
1.1215236
1.1360178
1.1443021
1.1490002
1.1530699
1.1586049
1.1645369
1.1675924
1.1664569
1.1621926
1.1560586
1.1486036
1.1415768
1.1362635
1.1312604
1.1228161
1.1089332
1.0893187
1.0642919
1.0345907
1.0038045
0.97600913
0.95343757
0.93569634
0.9227918
0.91420584
0.90857233
0.9040829
0.90197102
0.90478395
0.91465418
0.93174378
0.95684411
0.98925477
1.0259697
1.0616177
1.0932103
1.119012
1.1380953
1.149372
1.1552739
1.1583815
1.1600813
1.1593393
1.1573474
1.1548389
1.1519987
1.1476272
1.1436378
1.1410637
1.1391851
1.1343006
1.1249704
1.1093351
1.0862005
1.0548294
1.0196911
0.98575877
0.9572166
0.93512646
0.92128395
0.91474719
0.91328595
0.91376715
0.9175034
0.9265698
0.94330228
0.96775266
1.0011327
1.0414273
1.0843358
1.1230523
1.1547767
1.1774607
1.1908741
1.1947459
1.1935585
1.1906099
1.1882053
1.1856139
1.1850506
1.1863155
1.1884245
1.188291
1.1872277
1.1850973
1.1816964
1.1748051
1.1663604
1.1561253
1.1433466
1.1252509
1.1035497
1.0786152
1.051471
1.0220513
0.99471928
0.97161012
0.95392527
0.94031797
0.93237124
0.92975279
0.93229795
0.93891927
0.95230998
0.97303352
1.0001356
1.0294594
1.0593049
1.0859963
1.1065323
1.1181851
1.1241622
1.1269201
1.12852
1.1285312
1.1291797
1.1298034
1.1294259
1.126691
1.1250534
1.1261805
1.1302772
1.1345407
1.1378882
1.1363871
1.1263324
1.1053407
1.0771479
1.0458336
1.0156727
0.98925402
0.96984828
0.95655576
0.94638885
0.93572776
0.92471425
0.91376452
0.9044712
0.89895157
0.90161222
0.91433128
0.93670788
0.96622123
1.0017231
1.0398827
1.0765039
1.1074352
1.1320159
1.1492882
1.1588342
1.1612056
1.1601509
1.1577989
1.1548178
1.1509793
1.1477277
1.1445841
1.1402767
1.1339502
1.1270918
1.119262
1.1084115
1.0922776
1.0708865
1.0440099
1.0124124
0.97901022
0.94895311
0.92484518
0.90607943
0.89025931
0.87554856
0.86016254
0.84464873
0.83377655
0.83566207
0.85620135
0.89611671
0.95091789
1.0123317
1.0689249
1.1101494
1.1314596
1.1359253
1.1302427
1.1214429
1.1157604
1.1167945
1.1230244
1.1294819
1.1326917
1.1322827
1.1290853
1.1242025
1.1201719
1.1190604
1.1197554
1.118295
1.1118087
1.0989343
1.0788318
1.0513097
1.0193045
0.98700403
0.95746281
0.93174266
0.91135448
0.89696904
0.88742557
0.88008368
0.87434155
0.87093397
0.87101654
0.87543599
0.88689332
0.90756994
0.93724376
0.9723574
1.009674
1.0456224
1.0765408
1.0988585
1.1132432
1.1218628
1.1267577
1.1282177
1.1282099
1.127603
1.1259827
1.1214423
1.115048
1.1077708
1.0997037
1.0888456
1.0753035
1.0584751
1.0376202
1.011775
0.98409309
0.95798036
0.93620968
0.91913819
0.9081601
0.90232725
0.89933667
0.89578639
0.89218073
0.88987509
0.89096437
0.89618983
0.90854728
0.92873731
0.95512773
0.98269437
1.0089912
1.0312292
1.0476214
1.056256
1.0599978
1.0610968
1.0608776
1.0576433
1.0524511
1.0448654
1.0349942
1.0224627
1.011897
1.0061147
1.0057799
1.006855
1.0068953
1.0010267
0.98564109
0.95853639
0.92509525
0.8910705
0.86172523
0.83817034
0.82219749
0.81177826
0.80492973
0.80031508
0.80324547
0.81897946
0.85161944999999994
0.9000513
0.96177216
1.0286528
1.0910295
1.1394227
1.1718518
1.1888463
1.1934416
1.1877513
1.176755
1.1624373
1.1459392
1.127309
1.1111204
1.100147
1.0955811
1.0950037
1.0974949
1.0993263
1.0972417
1.0890266
1.0784252
1.0685215
1.0610766
1.0543442
1.0473725
1.0363872
1.018242
0.99176843
0.96190405
0.93378975
0.91163675
0.89649257
0.88884176
0.88560103
0.88309826
0.87897935
0.87611666
0.87820649
0.88863655
0.90840341
0.93790246
0.97323046
1.0082879
1.0369956
1.0580656
1.0712992
1.0779951
1.0802277
1.0824488
1.086104
1.0903855
1.0934327
1.0958354
1.0972044
1.0972748
1.0964722
1.0975584
1.1009116
1.1046399
1.1056275
1.1022964
1.0920402
1.0729723
1.0456455
1.0144044
0.98319045
0.95482795
0.93123944
0.91426378
0.90307762
0.89555024
0.89050491
0.88926459
0.89293044
0.90200356
0.91696924
0.93852893
0.96495797
0.99263788
1.018471
1.0414733
1.0607038
1.0752444
1.0857218
1.0941919
1.1010326
1.1047869
1.1047446
1.1017708
1.096435
1.0892281
1.0826519
1.0801592
1.0826866
1.0877671
1.0922243
1.0927521
1.0854156
1.067134
1.0393207
1.0068521
0.9749156
0.94705708
0.92640836
0.91394195
0.90739824
0.90244392
0.89698339
0.89113571
0.88618631
0.88365752
0.88691352
0.89869956
0.91923967
0.945616
0.97545839
1.0063615
1.0355656
1.0597832
1.0789239
1.0940437
1.1059046
1.1138032
1.1191983
1.123274
1.1261444
1.1262696
1.1248071
1.1230452
1.1216587
1.1195703
1.1178082
1.1162139
1.1129256
1.1039184
1.0882283
1.0657829
1.0378377
1.0060912
0.97599894
0.95192014
0.93566644
0.92501142
0.91816692
0.91207348
0.90446404
0.89441626
0.88654069
0.88642674
0.89868285
0.92366361
0.96078799
1.0053018
1.050306
1.0878093
1.1153137
1.1326107
1.1417912
1.1444689
1.1452628
1.1460792
1.1466949
1.1440486
1.1387392
1.1310548
1.1224215
1.113464
1.1085336
1.108892
1.1129685
1.1148465
1.1114102
1.0987133
1.0753045
1.0414752
1.0043715
0.97004415
0.94248821
0.92048055
0.9034703
0.88793812
0.87178189
0.85472024
0.84371998
0.84518614
0.86309993
0.89466544
0.93540861
0.97579185
1.0065749
1.0209443
1.0218034
1.0150883
1.0079852
1.003879
1.0057966
1.010818
1.014051
1.0104751
1.0024338
0.99368867
0.98912572
0.9910624
1.0023438
1.0201619
1.0389122
1.0517426
1.0571404
1.0546872
1.0461275
1.0335424
1.0215879
1.0115425
1.0024231
0.99144023
0.97854219
0.96321339
0.94635515
0.93009071
0.92007836
0.92014569
0.93185853
0.95353785
0.98393838
1.0187
1.0524467
1.0799721
1.1003516
1.1130975
1.1185869
1.1176224
1.1137337
1.1086836
1.1031769
1.0973254
1.0933775
1.0917631
1.0916788
1.0914332
1.0905972
1.0865501
1.075813
1.0557251
1.0272364
0.99224558
0.95401754
0.916959
0.88627548
0.86324484
0.84518793
0.82759419
0.80782345
0.78506452
0.76272667
0.7492616
0.756267
0.79113969
0.85327509
0.9338006
1.018661
1.0904874
1.1346971
1.1455387
1.1284791
1.0950204
1.0580183
1.0284118
1.0126348
1.0094181
1.012064
1.0139092
1.0116104
1.0038647
0.99103924
0.97571109
0.96086408
0.9464594
0.92969386
0.90860188
0.88336561
0.85524756
0.82662041
0.80228428
0.78705203
0.78217655
0.78464064
0.7902231
0.79477381
0.79523113
0.79141948
0.78856777
0.79475158
0.8164668
0.85525043
0.90833455
0.96841209
1.0251714
1.0683842
1.0938971
1.1036184
1.1028147
1.0966054
1.0905943
1.0874805
1.0862701
1.0834095
1.0782522
1.0718222
1.0653468
1.0584375
1.0518537
1.0453267
1.0376876
1.0272546
1.0160109
1.0063214
0.99871602
0.99000483
0.97727474
0.95731573
0.92887185
0.89363679
0.85922837
0.8336523
0.82104927
0.81831811
0.81927781
0.81612951
0.80480585
0.78793235
0.77819043
0.79049614
0.83448642
0.90725029
0.99606716
1.0797659
1.137534
1.1562789
1.1401255
1.1043674
1.0686873
1.0469115
1.0462685
1.0619631
1.0822897
1.0941208
1.0939633
1.0846014
1.0731151
1.064403
1.0625444
1.0646612
1.0641693
1.0533352
1.0322399
1.0045036
0.97651455
0.95259632
0.93741727
0.92996207
0.92609065
0.91973651
0.91032367
0.89877434
0.88809871
0.88038175
0.87978518000000006
0.88715207
0.90156143
0.91981649
0.94216213
0.96777634
0.99588803
1.0238171
1.0519348
1.0786325
1.1021554
1.1195126
1.1323498
1.1407138000000001
1.14454
1.1422337
1.1361923
1.1273689
1.1170691
1.1056759
1.097265
1.0930621
1.0922458
1.0908937
1.0874396
1.0786349
1.0623981
1.0379682
1.0100221
0.98251512
0.95840523
0.93781938
0.92129021
0.9059893
0.88842822
0.86586537
0.84073927
0.81661409
0.79815726
0.78925402
0.79444492
0.81396312
0.84452653
0.88005594
0.9165561
0.94928396
0.9745957
0.99036912
0.99930162
1.0039117
1.0066005
1.0090273
1.0145888
1.0234951
1.0336765
1.0417646
1.046908
1.0473865
1.0421439
1.031459
1.0188141
1.005862
0.99240095
0.97702828
0.95983269
0.9399
0.91702054
0.89285104
0.87169321
0.85578757
0.84468921
0.83606168
0.82809804
0.81864996
0.80760738
0.79869863
0.79950749
0.81616237
0.85063631
0.90012313
0.95857739
1.0162247
1.0630255
1.0931179
1.1074305
1.1102355
1.1069055
1.1028906
1.1025333
1.1057707
1.1091332
1.1094177
1.1057973
1.0980753
1.0865228
1.0730477
1.0601611
1.0478195
1.0334348
1.0149696
0.99198837
0.96464521
0.93411141
0.90427876
0.87984987
0.86295752
0.85213631
0.84485929
0.83836053
0.83024677
0.8201198
0.8123274
0.81387579
0.83047122
0.86348593
0.91086573
0.96661615
1.02174
1.0667717
1.0974259
1.1145835
1.1219658
1.123206
1.1229039
1.1235163
1.1242743
1.1218698
1.1157483
1.1069228
1.0968765
1.0859923
1.0763692
1.0687975
1.0620697
1.0529413
1.0408267
1.0255338
1.0066489
0.982714
0.95515041
0.92585273
0.89719605
0.87125103
0.85255366
0.84380748
0.8442987
0.84886316
0.85293349
0.85250837
0.84690035
0.83930465
0.83939933
0.85698107
0.89751319
0.95772265
1.0291671
1.0978712
1.1496002
1.1739036
1.171631
1.1505662
1.1224543
1.0970128
1.0827423
1.0808166
1.0869011
1.0929931
1.0954725
1.0925162
1.0851189
1.0744695
1.0646462
1.0563149
1.0474168
1.0329817
1.0119489
0.98410255
0.95204314
0.91926855
0.89337331
0.87868335
0.87561506
0.8788829
0.88407728
0.88551702
0.88036618
0.86854383
0.85770252
0.85518239
0.86573957
0.88683359
0.91466697
0.94051874
0.95621942
0.95592749
0.94377711
0.92669474
0.91253535
0.90457352
0.90534011
0.91045088
0.91299247
0.90561311
0.8888707
0.86573133
0.84170681
0.82101912
0.80942794
0.80740933
0.81222641
0.81866001
0.82564622
0.83202941
0.83808753
0.84402006
0.85290096
0.86494377
0.87874289
0.89153461
0.90391131
0.9165153
0.93150274
0.95160001
0.98200108
1.02448
1.0768741
1.1324356
1.1848174
1.2258364
1.2489736
1.251096
1.2365303
1.2118199
1.1843494
1.1598055
1.1435657
1.1357494
1.1327918
1.1293281
1.1232661
1.1132332
1.0997196
1.0845942
1.0722506
1.0640673
1.0581705
1.050238
1.0374977
1.017368
0.98963183
0.95712256
0.92603646
0.90047283
0.8808778
0.8644115
0.8481812
0.82961568
0.80973674
0.79486643
0.7957734
0.82061214
0.870671
0.93911233
1.0134855
1.0774255
1.1169156
1.1266457
1.1127719
1.0871845
1.0625157
1.0485379
1.0497337
1.062169
1.0768735
1.0860962
1.0872478
1.0810743
1.0706408
1.0608005
1.0559115
1.0558439
1.0564015
1.0530016
1.0425456
1.022671
0.99258434
0.95504037
0.91509893
0.87709608
0.84367247
0.81726258
0.7992284
0.78847785
0.78224504
0.77933724
0.78043409
0.78710399
0.80124829
0.82620042
0.8643908
0.91460635
0.97109403
1.0270813
1.0757953
1.1113087
1.1297777
1.1331638
1.1267906
1.1163045
1.105315
1.0971885
1.0928333
1.0903679
1.0859911
1.0784697
1.0676989
1.0538493
1.0363062
1.0163573
0.99450804
0.97010355
0.94142872
0.9099665
0.87823454
0.84908467
0.8242607
0.80677023
0.79729257
0.79368269
0.79113587
0.78717424
0.78092792
0.77413047
0.77024655
0.77650659
0.79870374
0.83835818
0.89002711
0.9461442
0.9964205
1.0312017
1.0433729
1.0347125
1.0116412
0.98288229
0.95478796
0.93381101
0.92087828
0.91259129
0.90206148
0.88697344
0.86684568
0.84418155
0.82200786
0.80715888
0.80313584
0.80946899
0.82039641
0.83173502
0.83847985
0.83801693
0.82981591
0.81947976
0.81188949
0.80977396
0.81115556
0.81450686
0.81681539
0.8175412
0.81902682
0.83043734
0.86009318
0.91224422
0.98205209
1.0609453
1.1343585
1.1882286
1.2121629
1.2086707
1.1865379
1.1585919
1.1346832
1.1237797
1.1260954
1.1361963
1.1447293
1.1478448
1.1435179
1.1332622
1.1190921
1.1065925
1.0974438
1.0901383
1.0795195
1.0636289
1.0404632
1.0103958
0.9750922
0.94065367
0.911059
0.88772375
0.86830162
0.85169844
0.83573118
0.82037932
0.80831124
0.80793001
0.82668579
0.86875842
0.93195369
1.0104775
1.0925063
1.1647546
1.2165648
1.2436108
1.2468168
1.232295
1.2093303
1.187998
1.1736518
1.1667163
1.1639566
1.1614787
1.1552776
1.1446551
1.1333164
1.1278057
1.1316223
1.143117
1.1557029
1.1608799
1.1509728
1.1245528
1.088485
1.0547314
1.0320005
1.0209037
1.0136073
0.99859511
0.96760581
0.92393104
0.88438643
0.87172159
0.89997043
0.96291828
1.0312565
1.0609006
