0.72588505
0.76603744
0.81287187
0.83350012
0.82164649
0.79460045
0.77444825
0.77265692
0.78317238
0.79051832
0.78604323
0.77243754
0.75870966
0.75305202
0.75754101
0.76729132
0.77574331
0.78099022
0.78417071
0.78624285
0.78900542
0.79237241
0.79440118
0.79534883
0.79650843
0.79808231
0.79976537
0.80163864
0.80254472
0.80123458
0.79849674
0.7939147
0.78620479
0.77829472
0.77170686
0.76610475
0.76325918
0.76337737
0.76458538
0.76633544
0.76940104
0.77343777
0.77793749
0.78467976
0.79337999
0.8012246
0.80913286
0.81631998
0.82095126
0.82426807
0.82769419
0.8310385
0.83444039
0.83855923
0.84170822
0.8411357
0.8373632
0.83027044
0.8191361
0.80766097
0.79811063
0.79054102
0.78601561
0.78471772
0.78485554
0.78528953
0.78698209
0.78964665
0.79189251
0.79540003
0.80006623
0.80410272
0.8090203
0.81519147
0.82105508
0.82624763
0.83073528
0.83316883
0.83293434
0.83228129
0.83216282
0.83153863
0.83217484
0.83301361
0.83087959
0.82581803
0.81801834
0.80723677
0.79545309
0.78568933
0.77888068
0.77478452
0.77464784
0.77752438
0.78044691
0.78453308
0.7892416
0.79269087
0.79555708
0.79841636
0.80064061
0.80280172
0.80674074
0.81219899
0.81735074
0.82270159
0.82714442
0.82836388
0.82865911
0.82918985
0.82913564
0.82892085
0.82820228
0.82483956
0.81784292
0.8089432
0.79905781
0.78820784
0.77929975
0.77288982
0.76743124
0.76442084
0.7640578
0.7647722
0.76633053
0.76877366
0.77075725
0.77153915
0.77306938
0.77614932
0.77989767
0.78646751
0.79540538
0.80396356
0.81215288
0.81955065
0.82461176
0.82759971
0.82999693
0.83155536
0.83130045
0.83043889
0.8283053
0.82233638
0.81452339
0.80552943
0.79504125
0.78548962
0.77859799
0.77370809
0.77023885
0.76847632
0.76726478
0.76528746
0.7647279
0.76641666
0.76905165
0.77428813
0.78177987
0.78943818
0.79735739
0.80597932
0.81424906
0.8214814
0.82866481
0.83537332
0.84026881
0.84537837
0.8506549
0.85363094
0.85451029
0.85231938
0.84536068
0.8350356
0.8243202
0.81486146
0.80769467
0.8046246
0.8046475
0.80466308
0.80547979
0.80668231
0.80671778
0.80709337
0.80848715
0.80967328
0.81042931
0.81142774
0.81186504
0.81076735
0.80997871
0.81008501
0.80973939
0.81133211
0.81470022
0.81731109
0.8186305
0.81787437
0.81338616
0.8055296
0.7968717
0.78874101
0.78152572
0.77777206
0.77757798
0.77879027
0.78277719
0.78928099
0.79645642
0.80440719
0.81304148
0.82054015
0.82573536
0.82963118
0.8321765
0.83248616
0.83307742
0.83435346
0.83437088
0.83430211
0.83427316
0.83309412
0.83167418
0.831504
0.83187019
0.83125984
0.82982981
0.82611711
0.8176961
0.8071057
0.7959488
0.78444182
0.77527556
0.76947113
0.76559903
0.76311192
0.76250004
0.76315361
0.76456914
0.76882336
0.77627056
0.78487972
0.79608007
0.80900342
0.82106124
0.83237887
0.84315132
0.8523628
0.86016893
0.86799679
0.87523819
0.88013628
0.88402623
0.88695486
0.8875529
0.88849556
0.89032493
0.89081162
0.88890689
0.88349344
0.87273465
0.85697655
0.83988659
0.82407573
0.81032878
0.80112877
0.79579311
0.79134751
0.78833362
0.78710876
0.787207
0.78976348
0.79568524
0.80343279
0.81099574
0.81854228
0.82543684
0.83033762
0.83608374
0.84346273
0.85075832
0.85840383
0.86553842
0.86977751
0.87095341
0.87082904
0.86998786
0.86843699
0.8679631
0.86747105
0.86301642
0.85519836
0.84353787
0.82742779
0.81019852
0.7952108
0.78359557
0.77608887
0.77322057
0.77288204
0.77207981
0.77133083
0.77067162
0.76938033
0.77072945
0.77613737
0.78454986
0.79592289
0.80952493
0.82284586
0.83423278
0.84434737
0.85272762
0.85799913
0.86234913
0.86620506
0.86818338
0.87037791
0.87331649
0.87519808
0.87542553
0.8736629
0.86820502
0.85830133
0.84639713
0.83377749
0.82007604
0.8082157
0.79876603
0.79051032
0.7849741
0.78265828
0.78191692
0.78171338
0.78174758
0.78096197999999994
0.77927674
0.77988134
0.78437314
0.79133761
0.80165138
0.81345558
0.82363127
0.83263148
0.84145887
0.8495257
0.85650572
0.86275159
0.86701096
0.86811684
0.86889934
0.87043885
0.87072907
0.87023209
0.86695904
0.85784667
0.84384236
0.82771539
0.81119515
0.79583896
0.78363384
0.77386476
0.76445789
0.75699536
0.75173448
0.74716928
0.74452462
0.74359231
0.74286541
0.74319096
0.74654265
0.75343002
0.76374467
0.77821314
0.79497767
0.81024525
0.82421968
0.8361071
0.84432564
0.85089837
0.8571342
0.86231037
0.86665034
0.87103729
0.87459143
0.87612319
0.8770101
0.87653531
0.87145177
0.86284034
0.85050565
0.83407186
0.81700512
0.80276403
0.79221722000000006
0.78526457
0.78148749
0.77843091
0.77369277
0.76903924
0.76570799
0.76321328
0.76377263
0.76729774
0.77182006
0.77767241
0.7858532
0.79595321
0.8075254
0.82094171
0.83423655
0.84418823
0.85177703
0.85732476
0.8601809
0.86331596
0.8676492
0.87103488
0.87211027
0.86993953
0.86284524
0.85084901
0.83761635
0.82539644
0.81394453
0.8054709
0.7992055
0.79261429
0.78672813
0.78264048
0.78009894
0.77958936
0.78166439
0.7849123
0.78783267
0.79190788
0.79759005
0.80342296
0.81128357
0.82072066
0.82963343
0.83855167
0.84784397
0.85617799000000006
0.86290511
0.86866593
0.8728576
0.87479969
0.87732845
0.88121412
0.88418737
0.88674995
0.88718012
0.882518
0.87329291
0.86136662
0.84746765
0.8325775
0.8188755
0.80636675
0.79373952
0.7832384
0.77547894
0.76909081
0.76532586
0.76376277
0.76229859
0.76088452
0.76068901
0.76204121
0.76555895
0.7732827
0.78468028
0.79677493
0.80968271
0.82202778
0.83174932
0.8406245
0.84983131
0.85833002
0.86561066
0.87158609
0.8748301
0.87464312
0.87406182
0.87458985
0.8746735
0.87572361
0.87592027
0.8717083
0.86326271
0.85186382
0.83803369
0.8232547
0.80984589
0.79768464
0.78534194
0.7743795
0.76503949
0.75595669
0.74925427
0.74526059
0.74244713
0.74117174
0.74213559
0.74501677
0.75035597
0.76017312
0.77429631
0.79052307
0.80890853
0.82747994
0.84303277
0.85646382
0.86809102
0.87682398
0.88323966
0.8881922
0.89102858
0.89169503
0.89269613
0.89460933
0.89549106
0.89625707
0.89519866
0.88907802
0.87878442
0.86568536
0.85021451
0.83410768
0.81953717
0.80629908
0.79326789
0.78177332
0.7717604
0.7613957
0.75271411
0.74585792
0.73944483
0.73448421
0.73186794
0.7311784
0.73294045
0.73877379
0.74848016
0.7607213
0.77627624
0.79364295
0.80920689
0.82323901
0.83502912
0.84322728
0.84958003
0.85607121
0.86253914
0.86858449
0.87488532
0.88020841
0.88241469
0.88331075
0.88279897
0.8785058
0.87122702
0.86072821
0.84596573
0.82884275
0.81256514
0.79829734
0.78591183
0.77619661
0.76786349
0.75853469
0.75038698
0.74443507
0.73984765
0.73775654
0.73819355
0.73996711
0.74381504
0.75168574
0.76335431
0.77683724
0.79125419
0.80415136
0.81256832
0.81944097
0.82683656
0.83486171
0.8446551
0.85538562
0.86412148
0.86983264
0.87426069
0.87831977
0.88186446
0.88662291
0.89125623
0.89192503
0.88908937
0.882501
0.87114496
0.85671036
0.84129115
0.82542981
0.81007068
0.79775374
0.78882438
0.78149159
0.77648883
0.77266632
0.76759866
0.76278169
0.75938542
0.75728489
0.75758878
0.76120145
0.76694834
0.77353131
0.78164258
0.79066267
0.79881562
0.80785642
0.81764812
0.82642196
0.83516024
0.843827
0.85070823
0.85558327
0.85929235
0.86136226
0.86144884
0.86217198
0.86442984
0.86652527
0.87034083
0.87460436
0.87551228
0.8718979
0.86322196
0.84875179
0.83017858
0.81160001
0.79513478
0.78067487
0.76972251
0.76114092
0.75166257
0.74238566
0.73360336
0.72424577
0.71526816
0.70788403
0.70216614
0.69929752
0.70247141
0.71264664
0.72812216
0.74881283
0.77196963
0.79342849
0.8136176
0.83295863
0.85069988
0.86755763
0.88410029
0.89892481
0.9109609
0.92174441
0.93111883
0.93683567
0.94028931
0.94118194
0.93838684000000006
0.93490735
0.93303907
0.93210597
0.93085179
0.92784925
0.92037907
0.90705471
0.89119473
0.87550367
0.85992223
0.84677091
0.835376
0.82362082
0.81272661
0.80466383
0.79983578
0.79831054
0.80020407
0.80381433
0.8074291
0.81308355
0.8215542
0.83108085
0.8422635
0.85333078
0.86136361
0.86713617
0.87273403
0.87875445
0.88540417
0.89319073
0.89985701
0.90216985
0.90189442
0.90022548
0.89703922
0.89537477
0.89542834
0.89400475
0.88909409
0.87976313
0.86492276
0.84550105
0.82598871
0.80915097
0.79492402
0.78527462
0.77897797
0.77291027
0.76748889
0.76337208
0.76027744
0.75924041
0.76180712
0.76763386
0.77597549
0.78840776
0.80449569
0.821094
0.83841629
0.8544753
0.86634496
0.87498145
0.88197798
0.88750391
0.89224807
0.8974528
0.90204934
0.90413179
0.90517819
0.90489401
0.90071544
0.89383841
0.88387632
0.86946391
0.85260049
0.83616322
0.82126741
0.8086495
0.7997869
0.79370342
0.78796936
0.78380299
0.78105976
0.77799557
0.77603558
0.77559984
0.77586251
0.77796051
0.78353832
0.7921721
0.80260194
0.81470025
0.82659962
0.83558968
0.84349383
0.85092101
0.85696372
0.86321147
0.86976183
0.87484196
0.87835896
0.88142862
0.88367985
0.88441656
0.88539392
0.88659795
0.88603239
0.88600494
0.88628857
0.88425148
0.87936544
0.87106272
0.85823733
0.84215184
0.82645315
0.81287581
0.80092211
0.79150601
0.78309749
0.7726469
0.7620177
0.75262693
0.74443694
0.73875165
0.73606668
0.73492012
0.73473678
0.73725624
0.74290795
0.75064835
0.76179685
0.77515926
0.78780564
0.80057032
0.81357227
0.82563498
0.8371864
0.84858262
0.8584116
0.86569861
0.871822
0.87670079
0.87869193
0.87975812
0.87986998
0.87756451
0.87481046
0.8728791
0.87098734
0.86893425
0.86675588
0.8624744
0.85395698
0.84258794
0.82918808
0.81317354
0.79828145
0.78595252
0.77510686
0.76627646
0.75929432
0.75220957
0.74411888
0.73614518
0.72829479
0.71999862
0.71400551
0.71148137
0.71145367
0.7164475
0.72670795
0.73990715
0.75516259
0.77140574
0.78632898
0.79910004
0.81147614
0.82393328
0.8356243
0.84834074
0.86140358
0.8722943
0.88202618
0.89074995
0.89741894
0.90285041
0.90809615
0.91254846
0.91578921
0.91939114
0.92323139
0.92542703
0.92749478
0.929091
0.92832188
0.92638224
0.92399644
0.92020285
0.91490212
0.90861725
0.90006126
0.88759382
0.87274041
0.85639969
0.83805296
0.82132397
0.80740824
0.7947559
0.7833224
0.77247821
0.760426
0.74723581
0.73518216
0.72501832
0.71626043
0.71091915
0.70918525
0.7098728
0.7160381
0.72873649
0.74622042
0.76730023
0.78948397
0.80873925
0.82308574
0.8339307
0.84233593
0.84866387
0.85573542
0.86341637
0.86932958
0.87455634
0.87925851
0.88235807
0.88465814
0.88700089
0.88816934
0.88703024
0.88501393
0.88242061
0.87817903
0.87480955
0.87213415
0.86716569
0.8593445
0.84792361
0.83179744
0.81261966
0.79410561
0.77807595
0.76440401
0.75392264
0.74498855
0.7340384
0.72257443
0.71150661
0.70083343
0.69294674
0.6893485
0.68938029
0.69306791
0.70164521
0.71451965
0.7299538
0.74858444
0.76891203
0.7876154
0.80574159
0.82332053
0.839174
0.85441461
0.86977122
0.88370427
0.89493459
0.90418365
0.91102085
0.91442978
0.91724947
0.9201382
0.92110408
0.92077545
0.91819766
0.9110965
0.89981378
0.88630329
0.87151491
0.856294
0.84297928
0.8317474
0.82092058
0.81220528
0.80586197
0.80076216
0.79821341
0.79863528
0.80072496
0.80412602
0.8092407
0.81512176
0.82070373
0.82732437
0.83495192
0.84171878
0.84945807
0.85766404
0.86390638
0.86830088
0.87083655
0.87044394
0.86779601
0.86529702
0.86336685
0.8608915
0.85901107
0.85629438
0.84919088
0.83889378
0.82592535
0.81010984
0.79409674
0.78039447
0.76889443
0.75890342
0.75086906
0.74351455
0.73484158
0.72701263
0.72090377
0.7156099
0.71313702
0.71397148
0.71691492
0.72256526
0.73201361
0.74457067
0.75919849
0.77627457
0.79436976
0.81088126
0.82706931
0.84252505
0.85529812
0.86622712
0.87531681
0.88136671
0.88510833
0.88833497
0.89088449
0.89165693
0.89167599
0.89048671
0.88633385
0.88241177
0.87998206
0.87774909
0.87554733
0.87199531
0.86413468
0.85099499
0.83474926
0.81714109
0.79907827
0.78362454
0.77106328
0.75875949
0.74737996
0.73644211
0.72437133
0.71224537
0.70204655
0.69477914
0.69207652
0.69671452
0.70860118
0.72492074
0.74486481
0.7655292
0.78310932
0.79848974
0.8124359
0.82462005
0.83624308
0.84816131
0.85911734
0.86809285
0.87650626
0.88451093
0.89079065
0.89746507
0.90404582
0.90784792
0.90936136
0.90892397
0.90603389
0.90201472
0.89884418
0.89567113
0.889908
0.88114622
0.86827263
0.84992993
0.83062428
0.81363622
0.79956354
0.78930894
0.78186557
0.77412278
0.76457267
0.75463539
0.74522774
0.73649127
0.73085265
0.72867973
0.7286278
0.73329102
0.74353817
0.75771678
0.7748911
0.79315273
0.80931974
0.82225413
0.83392979
0.84530267
0.8557225
0.86659644
0.87659826
0.88283906
0.88686651
0.88978817
0.89117965
0.89198949
0.89305915
0.89341382
0.8926029
0.89284226
0.89425496
0.89408812
0.89237998
0.88700482
0.87500368
0.85827935
0.83971447
0.82089265
0.80375325
0.78993621
0.77830039
0.76685839
0.75677091
0.74829696
0.73981144
0.73376003
0.73048999
0.72857037
0.72927732
0.73378571
0.74152124
0.75240471
0.76708699
0.78409309
0.8011224
0.81896379
0.8369163
0.85270735
0.86781216
0.88198042
0.89354837
0.90328489
0.91211506
0.91959233
0.92596532
0.93279687
0.93965524
0.94469501
0.94904365
0.95176928
0.9503042
0.94611218
0.94050052
0.93402621
0.92907652
0.92755717
0.92766821
0.9255738
0.91915529
0.9062239
0.88671975
0.86391254
0.84058816
0.81919036
0.80286761
0.79163594
0.78225632
0.7710323
0.75496831
0.7343562
0.7149075
0.7041369
0.70351139
0.70655468
0.70549229
0.69634592
0.68666004
0.69392571
0.7286888
0.78184371
0.82758501
0.8400673
0.81608441
0.78563675
0.79436291
0.8640185
0.96518352
