0.97343413
0.97889902
1.0212574
1.0667333
1.0863672
1.0720894
1.0357349
0.99723295
0.97303385
0.96725134
0.97179178
0.97274053
0.96295289
0.94330071
0.92053431
0.90114157
0.88931854
0.8836835
0.87935741
0.87237413
0.86321502
0.85485606
0.84971345
0.84960622
0.85465027
0.86342534
0.87315704
0.8844627
0.89859081
0.91634293
0.93654399
0.95868227
0.9812206
1.0015976
1.0190199
1.0345305
1.0482843
1.0587138
1.0669944
1.0737845
1.0791753
1.0813617
1.0832566
1.0853291
1.0865508
1.0845021
1.0792707
1.0696873
1.0546451
1.0357715
1.0170706
1.0013656
0.98866629
0.97996629
0.97458649
0.97089104
0.96604103
0.96256153
0.96206363
0.96545625
0.97211319
0.9825917
0.99506008
1.0065871
1.0161166
1.0248872
1.0337717
1.0418903
1.0502367
1.058652
1.0660242
1.0695512
1.0716646
1.0735267
1.0757719
1.0780505
1.0820345
1.0868591
1.0900936
1.0908608
1.090203
1.0885775
1.0850547
1.0814889
1.0787062
1.0762101
1.0710394
1.0647677
1.0572245
1.0480953
1.037039
1.0265919
1.0173503
1.008256
0.99898356
0.99036157
0.98264265
0.97540317
0.97143004
0.97295898
0.9806125
0.9916173
1.0057472
1.0200989
1.0315989
1.0382927
1.0425203
1.0461277
1.0498774
1.0548213
1.0616602
1.0687364
1.0724221
1.0725392
1.0694688
1.0639129
1.0550457
1.0466602
1.0400375
1.0352674
1.0315417
1.030539
1.0316648
1.0325222
1.0315438
1.0283274
1.0216666
1.0095309
0.99385399
0.97689555
0.96039333
0.94357196
0.92926316
0.91747666
0.90716594
0.89695447
0.88851595
0.88241885
0.87842347
0.87734796
0.88062014
0.88798477
0.89721519
0.90849529
0.92150798
0.93556169
0.94849034
0.96248259
0.97763944
0.99310046
1.0072688
1.0208839
1.032957
1.0416323
1.0468383
1.0501538
1.0522863
1.0523811
1.0522668
1.053093
1.0551341
1.0564283
1.0590741
1.0625332
1.0648521
1.0630329
1.0567797
1.0447757
1.0258384
1.0014703
0.97556336
0.95116166
0.92903739
0.91118731
0.89788159
0.88796207
0.87842591
0.87071783
0.86519518
0.86199507
0.86074499
0.86301626
0.86845133
0.87545309
0.88361714
0.89375016
0.90570801
0.9177631
0.93049028
0.94369982
0.95653281
0.96650022
0.97562919
0.98414407
0.99159585
0.99698577
1.0018423
1.0060318
1.0084996
1.0098166
1.0119363
1.0154053
1.018473
1.0214384
1.0234289
1.0226801
1.0158036
1.0047485
0.99039237
0.97366976
0.95526095
0.93826082
0.92353936
0.91014221
0.89764614
0.88661973
0.87676623
0.86672627
0.85795972
0.85180339
0.84896796
0.84810067
0.85106817
0.85743648
0.86579508
0.87429447
0.88369867
0.89379576
0.90385588
0.91457839
0.92755967
0.94280435
0.95810498
0.97324948
0.98728852
0.99890135
1.005559
1.0097701
1.0126479
1.0147595
1.0158947
1.0179309
1.0204621
1.0215191
1.0202921
1.017349
1.0123391
1.0035075
0.99200107
0.97873097
0.96416782
0.94710109
0.93050371
0.91538255
0.90177302
0.88879881
0.87765234
0.86799682
0.8587367
0.85021787
0.84417054
0.84135289
0.84077211
0.84319985
0.84848818
0.85570905
0.86240561
0.87033628
0.87989049
0.8909822
0.90291891
0.91697347
0.93234173
0.94678606
0.95930148
0.97036938
0.97989114
0.98666769
0.9924674
0.99844165
1.0046097
1.0083783
1.0109914
1.0113894
1.0079358
0.99901992
0.98655729
0.9715595
0.95440125
0.93674957
0.92119809
0.90855285
0.89727676
0.8877486
0.87969261
0.8723381
0.86353545
0.85550938
0.84910175
0.84463751
0.84180527
0.84226129
0.84592826
0.8515515
0.85884287
0.86850405
0.88018198
0.89198053
0.90422162
0.91675441
0.92899852
0.93892867
0.94872206
0.95880918
0.96882622
0.9777051
0.98668406
0.99537784
1.0024901
1.0082413
1.0141335
1.0202826
1.0246154
1.0271919
1.0272895
1.0237251
1.0140459
1.0010108
0.98613707
0.97043936
0.9540198
0.9389325
0.92506077
0.91091164
0.89618247
0.88216519
0.8695362
0.85766761
0.8481217
0.8416724
0.83803901
0.83491414
0.83372858
0.83446878
0.83689242
0.84061828
0.84762211
0.85812123
0.87077987
0.88483642
0.90021672
0.91575706
0.92907692
0.94085666
0.95174694
0.96199159
0.96989373
0.97778664
0.98579635
0.99323492
0.998958
1.0045524
1.0098641
1.013355
1.0144558
1.013645
1.0102896
1.0024583
0.99145336
0.97864302
0.96497948
0.94940539
0.93472264
0.92150439
0.90941555
0.89752733
0.88741215
0.87925767
0.87225693
0.86653982
0.86317501
0.86210463
0.8618011
0.86305578
0.86639252
0.871896
0.8780083
0.88672902
0.89801224
0.91078362
0.92323377
0.93580309
0.94767103
0.95746522
0.96553484
0.97362545
0.98229758
0.99009432
0.99767365
1.0048902
1.0110173
1.0137754
1.0155712
1.0168658
1.017043
1.0143965
1.0095051
1.0014044
0.98873759
0.97237768
0.95523049
0.93923815
0.92418707
0.91129306
0.90040061
0.89037603
0.87867317
0.86738368
0.85753021
0.84970223
0.84362865
0.84057641
0.83979191
0.83948539
0.83942568
0.8411306
0.84566899
0.85271115
0.86363061
0.878309
0.89512661
0.91039355
0.92436138
0.93613141
0.9451308
0.95131757
0.95738191
0.96441958
0.97205011
0.98031554
0.98927909
0.99724028
1.0009088
0.99993124
0.99427547
0.98443368
0.97019684
0.9557121
0.9428716
0.93199899
0.92190558
0.9128431
0.90334929
0.89151367
0.87751206
0.86348177
0.85101527
0.84007065
0.83206687
0.82699599
0.82353773
0.81857463
0.81300439
0.80681012
0.80011846
0.79304633
0.78782456
0.78481267
0.78277254
0.78104245
0.77973662
0.77812411
0.77452084
0.7702845
0.76679113
0.76508282
0.76439004
0.76745158
0.77440315
0.78394597
0.79376835
0.80377333
0.81238889
0.81748766
0.81891308
0.81840206
0.81716139
0.8150934
0.81440874
0.81626796
0.82038741
0.82392414
0.82751458
0.83002704
0.8302029
0.82707778
0.82272924
0.81821638
0.81361338
0.80964523
0.80758831
0.80738661
0.8074741
0.80850298
0.81083535
0.81429777
0.81701493
0.8205378
0.82484234
0.82948125
0.83379887
0.83958167
0.84727966
0.8560479
0.86552161
0.87604389
0.88676613
0.89532194
0.90202864
0.90741289
0.91177508
0.91355015
0.91507057
0.91663851
0.91755604
0.91629132
0.91395739
0.91038921
0.90451609
0.89646788
0.88780884
0.87906321
0.86900292
0.85881365
0.8494097
0.84115088
0.83247928
0.82593712
0.82222833
0.82112845
0.82143755
0.82410085
0.82851796
0.83322562
0.83819146
0.84507737
0.85496724
0.86749674
0.88421366
0.90551716
0.93026876
0.95472016
0.97860381
1.0000782
1.0173032
1.0288763
1.0369006
1.0426592
1.0465334
1.0497356
1.0540711
1.0595445
1.0639985
1.0677002
1.0707585
1.0730797
1.0729657
1.0730911
1.0739898
1.0748884
1.0737014
1.0705188
1.0639105
1.0519292
1.0346397
1.0144189
0.99349242
0.97289216
0.95558748
0.94324545
0.93573294
0.93012878
0.92675705
0.92448812
0.92239956
0.92011614
0.92027657
0.92409765
0.93106294
0.94071783
0.95275021
0.9653911
0.97557273
0.98368467
0.99041275
0.99624861
0.99969389
1.0035836
1.0084976
1.0142532
1.0201647
1.0282093
1.037943
1.0466596
1.0520323
1.0527897
1.0471778
1.0333175000000001
1.0141719
0.99354319
0.97465378
0.95752778
0.94491536
0.93574315
0.92740688
0.9171342
0.90599824
0.89480325
0.88414876
0.87582377
0.87205246
0.8729058
0.87603263
0.88129258
0.88846248
0.89744298
0.90699026
0.92019401
0.93787575
0.95919934
0.98168216
1.0046382
1.0256521
1.0418218
1.0526592
1.0601321
1.0657948
1.0695197
1.0733286
1.0778876
1.0824443
1.083874
1.08376
1.0819774
1.0779821
1.0707918
1.0621777
1.0520514
1.0391875
1.0238281
1.0078983
0.99251603
0.97728251
0.96413304
0.95413183
0.94720251
0.94104799
0.93719811
0.93543558
0.93507282
0.93512443
0.93726187
0.94172066
0.94753954
0.95463862
0.96386756
0.97473791
0.98491243
0.99469234
1.0041097
1.012783
1.0185186
1.0238391
1.0292747
1.0345926
1.0389361
1.0441049
1.0499465
1.0549158
1.058607
1.0616973
1.0635414
1.0617906
1.0570313
1.0494845
1.0389542
1.0236691
1.0067364
0.98963952
0.97346915999999994
0.95886158
0.94865179
0.94334575
0.94156303
0.94242648
0.94591739
0.95119888
0.95655157
0.96331159
0.97256396
0.9844773
0.99677005
1.0102865
1.0235525
1.0345626
1.0415524
1.0460033
1.048444
1.0485102
1.0468224
1.044635
1.0417555
1.0364274
1.029949
1.0234987
1.0177858
1.0113793
1.0068412
1.0040715
1.001777
0.99797964
0.99358506
0.98800835
0.97978307
0.96900357
0.95726474
0.94516067
0.93174846
0.9188417
0.90771405
0.89868036
0.88966462
0.8825108
0.87694255
0.87202003
0.86650514
0.8620168
0.85885983
0.85642706
0.85527763
0.85684211
0.86115089
0.86646477
0.8734961
0.88237882
0.89276135
0.90276292
0.91470722
0.92877691
0.94416288
0.95930544
0.97479628
0.98953768
1.0016247
1.0108371
1.0184026
1.0245696
1.0279475
1.0297018
1.0305262
1.0306926
1.0288678
1.028149
1.0293728
1.0318866
1.0334739
1.033768
1.0306332
1.0214286
1.0058538
0.98623575
0.96479591
0.94239498
0.92183979
0.90463337
0.89073734
0.87772565
0.86694986
0.85824916
0.8511583
0.84492121
0.84109597
0.8395861
0.83907782
0.83929705
0.84119762
0.84502888
0.84986701
0.8573507
0.86838302
0.88269149
0.89751392
0.91367116
0.92988315
0.94450453
0.95611668
0.96659654
0.9765736
0.98550493
0.99370682
1.0021305
1.0100893
1.0150447
1.0174137
1.0174626
1.0150806000000001
1.0083036
0.99963932
0.98952582
0.97775545
0.96376364
0.94978238
0.93652554
0.9235489
0.91126894
0.90097854
0.89269657
0.88485452
0.87829495
0.87359451
0.8708199
0.86826211
0.86792814
0.86997219
0.87377277
0.8781221
0.88424116
0.89199616
0.90028937
0.90918305
0.91991659
0.93257132
0.94541001
0.95904296
0.97345336
0.9878658
0.99952037
1.0099689
1.0188257
1.0250276
1.027078
1.0263263
1.022735
1.0154944
1.0054034
0.99468086
0.98432098
0.97337408
0.96314672
0.95412889
0.94598398
0.93657653
0.92809091
0.92108726
0.91559954
0.91111671
0.90929944
0.91002814
0.91195893
0.914748
0.91920333
0.92530589
0.93175171
0.9395279
0.94893691
0.95931007
0.96793243
0.97576258
0.9822085
0.9865543
0.988249
0.98954176
0.99112725
0.99223384
0.99278904
0.9935278
0.99418178
0.99337061
0.99285402
0.9939314
0.99672733
0.99857043
1.0000676
0.99944064
0.99468599
0.98450361
0.97135446
0.95694426
0.94199989
0.92775083
0.91553903
0.90492842
0.89388706
0.88311662
0.87333266
0.86494026
0.85661413
0.85041994
0.84631164
0.84359449
0.84149171
0.8418164
0.84507045
0.85060607
0.85840345
0.86869856
0.88023668
0.89035194
0.89917829
0.90677431
0.91300482
0.91629749
0.91885583
0.92081725
0.92158622
0.92027131
0.91842504
0.91608181
0.91220595
0.90690736
0.90129898
0.89546651
0.88815614
0.8808262
0.87433375
0.86859368
0.86139798
0.85421205
0.84672669
0.83843177
0.82893248
0.82053314
0.81380026
0.80755374
0.80090593
0.79379762
0.78567404
0.77566642
0.76637208
0.76041499
0.75912575
0.76055384
0.76481788
0.76955125
0.77232094
0.7718583
0.77095037
0.7718481
0.77542186
0.78233656
0.79289099
0.80561895
0.81780453
0.8300869
0.84324606
0.85712258
0.86853284
0.87736048
0.88148462
0.87935717
0.87113518
0.86184557
0.85586254
0.8553913
0.86120722
0.87262592
0.88611688
0.89641555
0.90220775
0.9039187
0.90284866
0.89868717
0.8944709
0.89048899
0.88572172
0.87864003
0.87082337
0.86328618
0.85647741
0.85159321
0.85030583
0.85261174
0.85658911
0.86242148
0.87023447
0.87997301000000006
0.89012436
0.90276128
0.91808914
0.93527336
0.95256831
0.97036612
0.98770916
1.0028518
1.0154949
1.0268854
1.0374576
1.0460423
1.0537509
1.0610491
1.0675485
1.0708191
1.0725247
1.0726118
1.0703342
1.0642868
1.0556775
1.0442714
1.0289887
1.0102887
0.99034917
0.97059947
0.9509436
0.93348405
0.91940997
0.90867937
0.89893177
0.89150903
0.88610373
0.88209947
0.87875383
0.8779739
0.88019641
0.88451516
0.89069933
0.89933108
0.90977501
0.91981099
0.92999144
0.94066077
0.95161567
0.96060775
0.96968619
0.97886815
0.98753847
0.99474693
1.0024811
1.0109678
1.0189395
1.0259527
1.0323386
1.0369359
1.0369499
1.0329513
1.0256957
1.0158969
1.002643
0.98957428
0.97795414
0.9678279
0.95819166
0.95027573
0.94357196
0.93667548
0.92971008
0.92445319
0.92203621
0.922212
0.9267786
0.93634964
0.94996726
0.96408565
0.97860452
0.99189612
1.0024696
1.0093768
1.0148829
1.0200122
1.0244049
1.0282166
1.0321316
1.0355106
1.0363719
1.036002
1.035798
1.0366966
1.0373012
1.039867
1.043759
1.047005
1.046997
1.0442859
1.0383978
1.0284027
1.015131
1.0008545
0.9865366
0.97117631
0.9561378
0.94215824
0.9292764
0.9156778
0.90386212
0.89448016
0.88744015
0.88195648
0.87948661
0.87974226
0.88129669
0.88392788
0.88861492
0.89533095
0.90251118
0.91107183
0.92125601
0.93258399
0.94277365
0.95376245
0.96550743000000006
0.97720883
0.9875286
0.9976842
1.0072372
1.0147326
1.0201834
1.0249454
1.0291656
1.0311387
1.0318115
1.0315846
1.0302979
1.0259976
1.0214412
1.0172911
1.013168
1.0076496
1.0016481
0.99428337
0.98382909
0.97030182
0.95564181
0.94125366
0.92713491
0.91543212
0.90718751
0.90197092
0.89690324
0.89281699
0.8892091
0.88582893
0.88289273
0.88346475
0.88881507
0.89819852
0.91076998
0.92586727
0.94173279
0.95585406
0.96914413
0.98244825
0.99567288
1.007188
1.0165281
1.0217982
1.0226503
1.0217756
1.0242246
1.0324955
1.0448718
1.0565436
1.0606689
1.0519931
1.0309183
1.0058977
0.98665939
0.97877337
0.97959971
0.98171151
0.97501968
0.95533977
0.92859287
0.90788668
0.90287932
0.91245481
0.92461849
0.92264182
0.89680424
0.85402035
0.81841567
0.8156433
0.85497523
0.91712042
0.95958629
