1.0236302
1.005294
1.0293607
1.0742471
1.1117947
1.1243738
1.1104718
1.082377
1.0564054
1.0458087
1.0541056
1.0748939
1.0960688
1.1084509
1.1096656
1.1034384
1.0955766
1.0914495
1.0934287
1.0995414
1.1047237
1.1047028
1.0985664
1.0876022
1.0737052
1.0587473
1.0448698
1.0327742
1.0219313
1.0116828
1.0032745
0.99814202
0.99739372
1.0014337
1.0114894
1.0276936
1.0486861
1.0720098
1.0967544
1.1203525
1.1402213
1.1542846
1.1643921
1.1716781
1.1771311
1.1803374
1.1835037
1.1863885
1.1880874
1.1862198
1.1827118
1.1782042
1.173626
1.1679641
1.1642318
1.1629292
1.16386
1.164478
1.1659399
1.1678344
1.1695769
1.168864
1.1667988
1.1631624
1.1570581
1.1458509
1.130054
1.1101423
1.0869473
1.0608195
1.035019
1.0124883
0.99468567
0.98056702
0.96979655
0.96166908
0.95499791
0.94851514
0.94375736
0.94372142
0.95046616
0.96400996
0.9838233
1.008517
1.0345225
1.0574216
1.0747178
1.0869312
1.0948527
1.0993573
1.1017464
1.1046122
1.108196
1.1113094
1.1124088
1.1128312
1.1128011
1.1123116
1.1106751
1.1100002
1.109991
1.1092567
1.1048436
1.0975139
1.0866138
1.0719756
1.0526413
1.0324595
1.0136104
0.99796178
0.98462272
0.97604998
0.9715054
0.96910867
0.96455841
0.95746129
0.94680906
0.93256575
0.91423323
0.89542758
0.87908509
0.86733835
0.85984689
0.85797573
0.86179695
0.87061547
0.88251643
0.89842402
0.91936984
0.94562936
0.97561281
1.0088316
1.0440307
1.0785609
1.1086457
1.1327497
1.1509225
1.163295
1.169752
1.171763
1.171828
1.1710777
1.1693381
1.1668767
1.1652796
1.164642
1.1639615
1.1622732
1.1606587
1.1588413
1.1559779
1.1511492
1.1462153
1.1415787
1.136871
1.1306505
1.1242258
1.1172806
1.1092138
1.0985115
1.0872668
1.0760992
1.0652628
1.0531895
1.0415236
1.0301366
1.0188229
1.0057352
0.99315743
0.9819174
0.97273203
0.96432043
0.95845476
0.95514599
0.95398207
0.95303767
0.9539075
0.95744252
0.9643737
0.97397913
0.98814461
1.0074059
1.0310409
1.0563117
1.0825385
1.1085179
1.1324614
1.1516574
1.1661148
1.1766306
1.1836778
1.1867667
1.1872199
1.1869114
1.1862785
1.1841176
1.1800284
1.1746018
1.1673786
1.1572969
1.1445404
1.1313316
1.1187399
1.1067572
1.0951064
1.0849697
1.0757178
1.0658819
1.053915
1.0410105
1.0272136
1.012212
0.99512776
0.97796588
0.96143587
0.94612925
0.93175998
0.92103433
0.91452032
0.91168717
0.90982293
0.90953122
0.91038883
0.91320543
0.91840229
0.93101596
0.9534945
0.98599663
1.0239623
1.0637967
1.0990597
1.1239227
1.133751
1.1309699
1.1199757
1.106277
1.0933162
1.0853576
1.0831498
1.0847196
1.0858093
1.0853233
1.0832406
1.0801164
1.0757658
1.0718553
1.0694808
1.0680874
1.0655413
1.0615111
1.0569162
1.0522524
1.0471413
1.0420745
1.0381905
1.0351204
1.0313767
1.0261631
1.0204503
1.0142796
1.0069592
0.99788146
0.98828677
0.97833217
0.96783926
0.95672891
0.9472979
0.94033875
0.93563358
0.93179579
0.9296746
0.92873594
0.92863822
0.92888438
0.93261774
0.94115408
0.95477353
0.9711935
0.99034048
1.0095472
1.0260906
1.0364273
1.0422432
1.0445833
1.0450879
1.043685
1.0432738
1.0443423
1.0463628
1.046831
1.0466188
1.0459018
1.0448439
1.0422652
1.0397314
1.0379084
1.0366373
1.0341677
1.0310826
1.0278236
1.024244
1.0189366
1.0123592
1.0051162
0.99699088
0.98669541
0.9745956
0.96198716
0.94952355
0.93696841
0.92503443
0.91525933
0.90779976
0.90151411
0.89557818
0.89063059
0.88649045
0.88271175
0.87956887
0.87947214
0.88355823
0.89188153
0.90360199
0.9192434
0.93725725
0.95530071
0.97065833
0.98370478
0.99390899
1.0009402
1.0039283
1.0052493
1.0055938
1.0052484
1.0028831
1.0007587
0.99926584
0.99857847
0.99679444
0.99596945
0.99607834
0.9968607
0.99622571
0.99585703
0.9960976
0.99711043
0.99735364
0.99837808
1.0005255
1.0034917
1.005173
1.0059999
1.005782
1.0038323
0.998213
0.98955202
0.97889102
0.96718864
0.95451976
0.94274953
0.93363742
0.92744096
0.92245785
0.91780944
0.91341297
0.90919069
0.90533701
0.90414529
0.90923764
0.92249285
0.94320152
0.96917935
0.99786372
1.0249218
1.0460153
1.0588848
1.0651778
1.0669371
1.06619
1.0643497
1.0639463
1.0649529
1.066129
1.0656198
1.0648904
1.0644689
1.0647162
1.0646444
1.0658769
1.0677717
1.0691311
1.0674438
1.0643278
1.0601897
1.0555937
1.0490735
1.042845
1.0367977
1.0304003
1.0212987
1.0109883
0.99990034
0.98844126
0.97539686
0.96254251
0.9505779
0.93972948
0.92869249
0.91882665
0.91100329
0.90553108
0.90119407
0.89886909
0.89927525
0.90262596
0.90805609
0.91673707
0.92989994
0.94755322
0.96788122
0.98982511
1.0122461
1.0327885
1.0483146
1.057569
1.0613774
1.0606076
1.0560768
1.0497593
1.0450666
1.0436279
1.0453607
1.04949
1.056498
1.0650337
1.0729577
1.0781632
1.0814855
1.0827776
1.0817583
1.0777473
1.0730329
1.0682691
1.0635497
1.0576894
1.0524777
1.0478461
1.0432605
1.0365848
1.0291765
1.0208426
1.0114919
0.99945535
0.98716866
0.97550416
0.96520267
0.95508578
0.94713255
0.941755
0.93896483
0.93713763
0.93778074
0.94155409
0.94880225
0.95828706
0.97117412
0.98747089
1.0061137
1.024248
1.0412142
1.0562571
1.0684098
1.0760673
1.0801911
1.0823416
1.0833678
1.0826721
1.0808751
1.0789162
1.0765213
1.0722658
1.0661128
1.0595915
1.0534556
1.0476523
1.0427455
1.0406072
1.0413054
1.0434663
1.0455056
1.0478189
1.0496759
1.0500933
1.0482633
1.0460019
1.0434661
1.039789
1.0329737
1.0237173
1.0116794
0.99706269
0.98005061
0.96461354
0.95303156
0.94636777
0.94279848
0.94271681
0.94434234
0.94631453
0.946793
0.9492759
0.95624356
0.96975154
0.98874917
1.0137179
1.0418384
1.0691977
1.0907381
1.1060323
1.1153592
1.1200714
1.1206912
1.1203047
1.1204879
1.1213414
1.1209013
1.1195004
1.1175094
1.114949
1.1106552
1.1054535
1.1002749
1.0950496
1.0884196
1.0807331
1.0732821
1.0665614
1.0599642
1.0538237
1.0493308
1.0462329
1.0430191
1.0386368
1.0335948
1.0273064
1.0185965
1.0067943
0.99363031
0.98001945
0.96653624
0.95358394
0.94365473
0.93733494
0.9339926
0.93175252
0.93117116
0.93147583
0.9320729
0.93213422
0.934645
0.94112896
0.95255375
0.96770036
0.98786779
1.0114229
1.0359032
1.0568932
1.0744559
1.0874901
1.0957305
1.0979994
1.0974169
1.0956879
1.0940329
1.0914929
1.090013
1.0899835
1.0910496
1.0910443
1.0906846
1.0900943
1.0889237
1.0854405
1.0805165
1.0750217
1.0692952
1.0624314
1.0554939
1.0496796
1.0451059
1.040356
1.0351627
1.0297726
1.0235266
1.0149348
1.0039081
0.99195249
0.97997245
0.96815876
0.95721072
0.94901629
0.94388781
0.94092973
0.93920529
0.93973837
0.94264155
0.94780031
0.95520563
0.96703307
0.98347961
1.003343
1.0239561
1.0447299
1.0633854
1.0778024
1.0859217
1.0899819
1.0913212
1.0912628
1.0893217
1.0880577
1.0874018
1.0866413
1.0829937
1.0782838
1.0728773
1.0674754
1.0610932
1.0563519
1.0538504
1.0533037
1.0522211
1.0512014
1.0499262
1.0480654
1.0441766
1.0399438
1.0364535
1.0339363
1.0306905
1.0268594
1.0222489
1.0162058
1.0073004
0.99654495
0.98565796
0.97565566
0.96607891
0.95740755
0.95044553
0.94511451
0.94068662
0.93807008
0.93965448
0.94673735
0.9590604
0.97599266
0.9971842
1.0202699
1.0419431
1.0596937
1.073736
1.0838228
1.0896685
1.0911151
1.0902589
1.0875928
1.0830398
1.0760598
1.0691664
1.0633331
1.0588995
1.0546355
1.0521172
1.0507821
1.0496729
1.0464805
1.04304
1.0396887
1.0367632
1.0325483
1.0292436
1.0269462
1.0255636
1.0232365
1.0217722
1.0213661
1.0215814
1.0198708
1.016556
1.0110968
1.0031383
0.99165463
0.97907015
0.96760503
0.95866919
0.95144874
0.94641257
0.94325181
0.94106176
0.93836903
0.93663298
0.93829656
0.94514724
0.95714508
0.97449864
0.99651132
1.0204896
1.0424748
1.0602417
1.0736634
1.0827289
1.0874008
1.0886893
1.0888588
1.0885302
1.0870796
1.0839098
1.0803678
1.0766245
1.0723256
1.0669726
1.0624179
1.0588868
1.0558695
1.0520758
1.0489952
1.0465557
1.0443067
1.0407541
1.0376345
1.0349709
1.0324347
1.0281081
1.0235107
1.0182931
1.0119392
1.0022167
0.99102405
0.97888903
0.96662915
0.95361911
0.94263821
0.93476444
0.93022284
0.92697855
0.92553752
0.92533759
0.92577206
0.92538814
0.92611565
0.92964164
0.93707908
0.9476473
0.96205663
0.9797914
0.9989935
1.0163744
1.0309234
1.0423979
1.0504881
1.0543715
1.0551727
1.0547043
1.0537183
1.0516583
1.0488768
1.0466477
1.0449467
1.0425851
1.0389127
1.0348645
1.0303062
1.0245755
1.0175711
1.0114148
1.0068772
1.0037633
1.0012058
1.0002932
1.0004005
1.0003326
0.99840432
0.99586563
0.99258365
0.98801327
0.98051385
0.97156028
0.9613795
0.95043508
0.93823966
0.92795295
0.92081374
0.91719365
0.91473375
0.91419929
0.91459121
0.91552028
0.91610346
0.91993841
0.92950769
0.94630868
0.96862661
0.99585511
1.0246997
1.0509131
1.0694954
1.0799105
1.0829989
1.0807219
1.0743896
1.0675263
1.0625528
1.0600581
1.0582667
1.0569048
1.0559373
1.05468
1.0514417
1.0462819
1.0402341
1.0336507
1.0261024
1.0185067
1.0130242
1.0105102
1.0102926
1.0115472
1.014292
1.0169927
1.0174032
1.0139484
1.0076739
0.99901262
0.98815457
0.97519501
0.96250553
0.95107337
0.94131367
0.93289344
0.92786607
0.92640819
0.9277682
0.92978625
0.93332628
0.93825337
0.94512995
0.95403174
0.9688436
0.99097783
1.0200831
1.051907
1.0843531
1.1126682
1.1327097
1.1406559
1.1388474
1.1303138
1.1188482
1.106196
1.0959549
1.0888793
1.0839453
1.0780049
1.0711853
1.0638861
1.0567614
1.0492967
1.0431435
1.0392016
1.03707
1.0346503
1.0318388
1.0291018
1.0264311
1.0227907
1.0185596
1.014574
1.0105164
1.0049407
0.99755364
0.98948174
0.98116291
0.97232787
0.96331238
0.95583085
0.95025085
0.94591491
0.94216254
0.94015265
0.93984246
0.94067258
0.94210331
0.94608451
0.95328427
0.96382038
0.97701519
0.99441704
1.0152093
1.0374672
1.057834
1.0760441
1.0904642
1.0999594
1.1029258
1.1021599
1.099044
1.0947676
1.0881911
1.0817503
1.0755487
1.0694471
1.0616352
1.0543733
1.0486575
1.0451483
1.0423896
1.0416414
1.0425949
1.0442554
1.0441158
1.0428173
1.0408508
1.038495
1.0346618
1.0303686
1.0261302
1.0214932
1.0146167
1.0056616
0.9954533
0.98454371
0.97274089
0.96138959
0.95230384
0.9460051
0.94149413
0.93839255
0.93722287
0.93767727
0.93895681
0.94138818
0.94699252
0.95655649
0.96966756
0.98554617
1.0045116
1.0249459
1.0443542
1.0603252
1.0732351
1.0826189
1.0880649
1.0889949
1.0877636
1.0850831
1.0810855
1.0746687
1.0680306
1.0616983
1.0559555
1.0494471
1.0443884
1.0407684
1.0379985
1.0331799
1.0275506
1.02072
1.0127404
1.0024632
0.99288567
0.98556531
0.98132808
0.97849256
0.97765664
0.97779415
0.97735398
0.97368472
0.96759712
0.9602286
0.95281112
0.94529747
0.93949285
0.93636684
0.93554199
0.93494578
0.93439399
0.93445595
0.93572204
0.93836721
0.94439684
0.95611113
0.97399315
0.99625046
1.0210072
1.0465584000000001
1.0699944
1.088125
1.0996267
1.105846
1.107892
1.1065418
1.1027766
1.0990296
1.0958598
1.0927203
1.0886697
1.0851602
1.0821715
1.079026
1.0741986
1.0688748
1.0627261
1.055321
1.0456436
1.0363745
1.0287943
1.0237126
1.0198248
1.0185807
1.0189516
1.0193756
1.0164816
1.0113051
1.0037953
0.99443588
0.98239416
0.970421
0.95977753
0.95117064
0.94332323
0.93763471
0.93425675
0.9327633
0.93116689
0.93028595
0.93065315
0.93271128
0.93589108
0.94215135
0.95293193
0.96835768
0.98641106
1.0062134
1.0264308
1.0448166
1.0584367
1.0667994
1.0709562
1.0717929
1.0695478
1.0656277
1.0622075
1.059887
1.0578408
1.0556281
1.0542798
1.0535933
1.0525823
1.0505042
1.0486152
1.0468099
1.0442936
1.0401096
1.0357851
1.0315529
1.0272291
1.0220288
1.0177817
1.0145477
1.0116814
1.0072542
1.0023372
0.9965752
0.98968325
0.98034379
0.9709744
0.96243138
0.95527226
0.94787514
0.94207588
0.93777425
0.93483333
0.93172286
0.93080046
0.93332198
0.94028007
0.95066991
0.96587847
0.98532813
1.0072851
1.0281221
1.0469727
1.0626565
1.074079
1.0794785
1.0800652
1.0772138
1.0718356
1.0635673
1.0539742
1.0447223
1.0364966
1.0285674
1.0215632
1.0166071
1.0136757
1.0114955
1.0097619
1.009207
1.0094444
1.0091806
1.0079015
1.0068419
1.0063118
1.0060125
1.0058389
1.0072895
1.0100125
1.0123635
1.0120479
1.0090617
1.0026312
0.99248002
0.97879452
0.96509229
0.95346333
0.94490915
0.9383112
0.93454563
0.93250984
0.93119893
0.92916415
0.92941358
0.93375756
0.94358584
0.95742233
0.9762072
0.99768695
1.0189328
1.0357183
1.0483628
1.0568833
1.0619235
1.0628832
1.0620553
1.0602138
1.0573744
1.0519888
1.045505
1.0390775
1.0334579
1.0277703
1.0230073
1.0194596
1.0164508
1.012751
1.0084869
1.0035017
0.99761552
0.99103064
0.98577926
0.98360948
0.98473679
0.98751868
0.98990053
0.98933832
0.98368205
0.97295896
0.96059476
0.95129544
0.94756374
0.94822438
0.949174
0.94543056
0.93346714
0.9148472
0.89703528
0.89018785
0.89985211
0.92318899
0.94907412
0.96388042
0.95768894
0.93269487
0.90495777
0.89913934
0.93305286
1.0060377
1.0930035
1.151856
1.1363432
