0.66819201
0.71361065
0.73446092
0.71814854
0.68673665
0.6681756
0.67155275
0.6829673
0.68535684
0.67744242
0.6699597
0.6730263
0.68729603
0.70324784
0.71198425
0.71186771
0.70486111
0.69464566
0.68421648
0.67434594
0.66729773
0.66454089
0.66357217
0.66258319
0.66087875
0.65942417
0.66348532
0.67384557
0.68648436
0.69739158
0.70152005
0.69830457
0.69348116
0.69095006
0.69202263
0.69545219
0.69664358
0.69492795
0.69374133
0.6949142
0.69982776
0.70665085
0.70990537
0.70861275
0.70395598
0.69620147
0.68875585
0.68280819
0.67704156
0.67426762
0.674418
0.67454067
0.67462523
0.67413164
0.67462013
0.68164811
0.69563451
0.71151716
0.72291195
0.72289749
0.71170775
0.69753676
0.68797092
0.68832936
0.69897713
0.7141954
0.73041319
0.74615598
0.75870299
0.76766919
0.77134598
0.76648115000000006
0.75594997
0.74412499
0.73404528
0.73107633
0.73502977
0.74156142
0.74921858
0.7559463
0.76109944
0.76745284
0.77385728
0.77676082
0.77437606
0.76518225
0.75243193
0.74312258
0.740054
0.74287992
0.74839642
0.7512602
0.75180507
0.75364924
0.75755961
0.76355135
0.76777679
0.76424169
0.75435321
0.74231059
0.73131747
0.72653348
0.72693391
0.72783749
0.72862892
0.7286339
0.72857484
0.73243896
0.74028817
0.74987483
0.75930995
0.76396131
0.76160483
0.75418435
0.74370281
0.73479402
0.7318388
0.73432809
0.74143006
0.75091734
0.75823943
0.76292298
0.76511167
0.76335319
0.75983285
0.75502309
0.74705641
0.73872256
0.73113651
0.72454038
0.72249308
0.72512488
0.73036624000000006
0.73771876
0.74369137
0.74527139
0.74306632
0.73703356
0.72924339
0.72347005
0.72008356
0.71944217
0.72144709
0.723494
0.7257757
0.72889566
0.73093887
0.73232328
0.73272119
0.73020053
0.72733272
0.72543006
0.72268974
0.72072287
0.71891297
0.71652326
0.71734348
0.72222338
0.72935084
0.73784079
0.74424323
0.7467841
0.74774105
0.74715524
0.74441629
0.73915589
0.72902038
0.71541951
0.70268657
0.6927117
0.68743555
0.68643257
0.68611132
0.68700022
0.69085251
0.69764805
0.70934541
0.723868
0.73491187
0.74048282
0.73849314
0.72863841
0.71677887
0.70742097
0.70338252
0.70774397
0.71838042
0.73130705
0.74437845
0.75422549
0.76002109
0.76372025
0.76517444
0.76529641
0.76502152
0.76226889
0.75719232
0.7505819
0.7416422
0.73289731
0.72629931
0.72114852
0.71948519
0.7214838
0.7245865
0.72966008
0.73476915
0.73629034
0.73462261
0.72918867
0.72040351
0.71262953
0.70753851
0.70539669
0.70695627
0.70987555
0.713118
0.71827387
0.7252091
0.73461973
0.74610958
0.75506338
0.75864352
0.75531526
0.74366566
0.7279142
0.71300536
0.70105861
0.69576967
0.69690276
0.70028436
0.70580204
0.71231631
0.71866785
0.72733695
0.73712542
0.74427805
0.74709723
0.74277955
0.73151216
0.71850744
0.70755211
0.70164405
0.70217835
0.70568572
0.70951843
0.71305983
0.71535851
0.71876971
0.72525195
0.73282213
0.74072855
0.74679683
0.74720765
0.74329633
0.73674535
0.72809399
0.72172782
0.71847534
0.71626395
0.71601569
0.71707245
0.71900499
0.72409135
0.73038984
0.73379314
0.7320327
0.72282325
0.70859543
0.69584001
0.68787708
0.68609009
0.68927155
0.69277839
0.69567189
0.69928747
0.70308974
0.70778703
0.71144068
0.70956692
0.70335333
0.69598145
0.69053718
0.69333119
0.70475507
0.71979275
0.73502392
0.74608086
0.75135319
0.75469782
0.75746148
0.75860129
0.75710663
0.75036713
0.73982701
0.73123159
0.72783098
0.73098031
0.73878579
0.74555654
0.74922695
0.75022551
0.74762722
0.74245042000000006
0.73439877
0.72189526
0.70894419
0.69942505
0.69378762
0.6938983
0.69747714
0.70105898
0.70586061
0.7114878
0.71605145
0.71905815
0.71769966
0.71099373
0.70213808
0.69273104
0.68430327
0.67833706
0.67343815
0.67046166
0.67166803
0.67650399
0.68475673
0.69435338
0.70066533
0.70355422
0.70463459
0.70482276
0.7080474
0.71462244
0.72025456
0.72361307
0.72193993
0.7134779
0.70234166
0.69174432
0.68377433
0.68125263
0.68239776
0.68419452
0.68606131
0.68667702
0.68682693
0.68845313
0.68960521
0.6882725
0.68344564
0.67423375
0.66465918
0.65977323
0.66032738
0.66616925
0.67408714
0.67898867
0.68169165
0.68404007
0.68595062
0.68971689
0.69367677
0.69461288
0.69410948
0.69292636
0.69139578
0.69163369
0.69191584
0.68990353
0.68618
0.68022084
0.67316204
0.66791601
0.66462728
0.66420157
0.6678202
0.67378055
0.68206769
0.69232494
0.70120925
0.70797037
0.71176598
0.71049451
0.70692186
0.70356241
0.70042012
0.70055621
0.70342423
0.70616518
0.70987902
0.71462714
0.72072398
0.73110014
0.74448932
0.75718039
0.76632175
0.76787659
0.76171267
0.75250821
0.74406784
0.74055485
0.74440158
0.75314877
0.76488503
0.77721953
0.7852474
0.78761436
0.78471173
0.77768788
0.77303583
0.77462418
0.77988281
0.78670589
0.79047791
0.78848649
0.78525948
0.78322461
0.7805997
0.77509339
0.76266015
0.74395761
0.72643456
0.71527787
0.71196442
0.71458177
0.71797485
0.72187577
0.73000308
0.74282706
0.75851334
0.77136891
0.77418016
0.7679771
0.75858699
0.75086739
0.74991272
0.75456299
0.75904184
0.76284871
0.76552032
0.76658809000000006
0.76860732
0.77022609
0.76873346
0.76499993
0.75862092
0.75022264
0.7427643
0.7360322
0.72989567
0.72538786
0.72122342
0.71801684
0.71737904
0.71812804
0.72030441
0.72309575
0.72304201
0.72027387
0.71557455
0.70852177
0.70275953
0.69998198
0.69869124
0.70079169
0.70554477
0.7110043
0.71869577
0.72746802
0.73514631
0.74217966
0.74707571
0.74939558
0.75144243
0.75274076
0.75270991
0.75157093
0.74729552
0.74054713
0.73403516
0.72828363
0.72527686
0.72597719
0.72810146
0.7319501
0.73707882
0.74034524
0.74178867
0.74015827
0.73271228
0.72224004
0.71043828
0.69794106
0.68843471
0.68236847
0.67867187
0.67881078
0.68211419
0.68817267
0.69834826
0.71077086
0.72356246
0.73617084
0.74638769
0.75460761
0.76235427
0.76793642
0.77095958
0.77100613
0.76625444
0.75959726
0.75420572
0.7499918
0.7486678
0.74920495
0.74823878
0.74798633
0.74927383
0.75091667
0.75377843
0.75468306
0.74958954
0.73931902
0.72509544
0.71013644
0.6999006
0.69574951
0.6972184
0.70348733
0.71112897
0.71940388
0.7301653
0.74376443
0.7617933
0.78318353
0.8015222
0.81251273
0.81351523
0.80411632
0.79158186
0.78252726
0.77857995
0.78154946
0.78846977
0.79516341
0.80216805
0.80768023
0.80785495
0.80083224
0.78431487
0.76061611
0.73801302
0.72247485
0.71669624
0.71947163
0.7246658
0.72888359
0.7326446
0.73618529
0.74127797
0.74774236
0.75181468
0.75298648
0.75142855
0.74600425
0.73944115
0.73271677
0.72449895
0.71810292
0.7144971
0.71279979
0.71451972
0.71716613
0.71677491
0.71301584
0.70511031
0.69460888
0.68588296
0.67920139
0.67345727
0.66832795
0.66282241
0.66002057
0.66405415
0.67348564
0.68480196
0.69327998
0.69518593
0.6950774
0.69921367
0.70823861
0.72044086
0.72927442
0.7282198
0.72131156
0.71490924
0.71330859
0.71935367
0.72865346
0.73506905
0.73798416
0.73774809
0.73593652
0.73515347
0.73396884
0.73120298
0.72788052
0.72353503
0.71930734
0.71690642
0.71573211
0.71736932
0.72327955
0.7317003
0.74233373
0.75375691
0.76270326
0.77002876
0.77541489
0.77582629
0.77207261
0.76392676
0.75197374
0.74166477
0.73536021
0.73217342
0.73174509
0.73111299
0.72911429
0.72861505
0.72957144
0.73036245
0.7291838
0.72270627
0.71237121
0.70320481
0.6974781
0.69663045
0.69919291
0.70076995
0.70179758
0.70404977
0.70673596
0.7106496
0.71369152
0.71208969
0.70833378
0.70424869
0.70036871
0.69965662
0.70207033
0.70748303
0.71901044
0.7361713
0.75582551
0.77448034
0.78604315
0.78789969
0.78290371
0.7741649
0.76627698
0.76244731
0.76090831
0.76075602
0.76146652
0.7612681
0.76177048
0.76333844
0.76260527
0.75874916
0.75025229
0.73537093
0.71894569
0.70466104
0.69378273
0.68891871
0.68835762
0.68909894
0.69185203
0.69608797
0.7016738
0.71013681
0.71974282
0.72893364
0.73756097
0.7431624
0.74514099
0.74417987
0.73931661
0.73275062
0.72699411
0.72173583
0.71890239
0.71925113
0.72115763
0.72665728
0.73578141
0.74509188
0.75464677
0.76228499
0.76555371
0.76691921
0.76672628
0.76387851
0.75945898
0.75254144
0.74365865
0.73697181
0.73431987
0.73643946
0.74295627
0.74920193
0.75195697
0.75058812
0.74436339
0.73637774
0.7299991
0.72526067
0.72375177
0.72547239
0.72799755
0.73265479
0.73949992
0.74602557
0.75341539
0.76049637
0.76494295
0.76833857
0.76959569
0.76640906
0.75971955
0.74962715
0.73859211
0.73235688
0.73260302
0.73841427
0.74754083
0.75483939
0.75863982
0.7602964
0.75904227
0.75521113
0.74850815
0.7372786
0.72494229
0.71518187
0.70794852
0.70440012
0.70350062
0.70351317
0.70905167
0.72222053
0.7402511
0.75970845
0.7733928
0.77635953
0.77154791
0.76290235
0.75442955
0.74987351
0.74833968
0.74933072
0.75432017
0.76200481
0.77107239
0.77959677
0.78339778
0.78232649
0.77820428
0.77107795
0.76318286
0.75517179
0.7455552
0.7375047
0.73344551
0.73272006
0.73678838
0.74290593
0.74627124
0.74639977
0.74228495
0.73397306
0.7252555
0.7178352
0.71313251
0.7135981
0.71780795
0.72393865
0.73105401
0.73614425000000006
0.7387384
0.74000793
0.73887915
0.73623535
0.7328426
0.72750304
0.72267455
0.72021879
0.71899472
0.72044616
0.72389015
0.72644929
0.72966275
0.73241799
0.73152481
0.72706793
0.71810098
0.70541624
0.69417313
0.68670477
0.68325506
0.68405179
0.68671294
0.69107839
0.6995288
0.7112548
0.7243886
0.73572315
0.74002769
0.73711162
0.73021108
0.72184156
0.7163234
0.7146965
0.71367437
0.71314717
0.71276785
0.71117536
0.7111171
0.71182455
0.70977564
0.70491188
0.69663679
0.68619182
0.6789016
0.67641144
0.67736316
0.68001679
0.68049153
0.67846509
0.67813873
0.68199908
0.69137337
0.70457461
0.7154063
0.72052173
0.71941135
0.71206056
0.70277461
0.69520714
0.68997459
0.68983568
0.69446792
0.69982807
0.70548442
0.71001845
0.7127398
0.71733461
0.72396302
0.72945126
0.73154071
0.72672912
0.71527021
0.7032562
0.69558888
0.69525784
0.70190752
0.70928544
0.7123204
0.70995175
0.70336632
0.69825039
0.69894043
0.70321756
0.70781138
0.70842749
0.70188548
0.69296471
0.68697456
0.68488542
0.68761415
0.69134404
0.69174911
0.69081816
0.69016123
0.68988261
0.69058407
0.68927619
0.68421613
0.6783063
0.67319821
0.67009987
0.6694121
0.66806389
0.66546096
0.66382604
0.66424322
0.66914745
0.6790447
0.69048065
0.70218916
0.71267611
0.71901996
0.7225102
0.72373917
0.72150063
0.71890816
0.71685691
0.71468004
0.7147388
0.71681547
0.71977402
0.72507222
0.73172094
0.73833405
0.74479193
0.74790066
0.7451921
0.73695285
0.72341746
0.70819564
0.69606928
0.68789804
0.68397976
0.6829375
0.68132863
0.68022343
0.68199288
0.68696428
0.69692272
0.70951921
0.71842352
0.7220069
0.71947844
0.71228823
0.70658545
0.70458623
0.70451966
0.70472494
0.70171205
0.69517221
0.68987761
0.68884806
0.69342992
0.70271786
0.71131715
0.71601203
0.71682259
0.71383063
0.7100986
0.70789973
0.70597249
0.70524818
0.70625607
0.7074349
0.7100089
0.71247412
0.70985031
0.70163164
0.68771703
0.66999585
0.65551362
0.64752981
0.64482537
0.64568264
0.64595574
0.64455945
0.64575149
0.65174579
0.66247224
0.67565205
0.685501
0.68983148
0.69063454
0.6892895
0.68856791
0.68969125
0.69097899
0.69423145
0.70102365
0.70956624
0.71957347
0.72828584
0.73144941
0.73116999
0.72893216
0.72466139
0.72057689
0.71575506
0.70910095
0.70372312
0.70103957
0.70151693
0.70608507
0.71188255
0.71645026
0.71997916
0.72165262
0.72253587
0.72412624
0.72473776
0.72409684
0.72215902
0.71749769
0.71269946
0.7106429
0.71176532
0.71879923
0.73111338
0.74364737
0.75470572
0.76134169
0.76143034
0.75850845
0.75451422
0.7501937
0.7484496
0.74976589
0.75480638
0.76531532
0.77776138
0.78636246
0.78662512
0.77536788
0.75634579
0.73740652
0.72281187
0.71458559
0.71122899
0.70901591
0.71003893
0.71783833
0.73206008
0.75147051
0.76987968
0.77912822
0.77929873
0.77294788
0.76324237
0.75531112
0.74884486
0.74113007
0.73319918
0.72605469
0.72238935
0.72607485
0.73500452
0.74412504
0.74861679
0.74355254
0.73041522
0.71578534
0.70487497
0.702449
0.70852239
0.71705247
0.72443987
0.72883525
0.72917578
0.72960818
0.73231663
0.73507032
0.73803711
0.73889777
0.7353018
0.73036203
0.7258141
0.7224745
0.7227717
0.72537969
0.72862105
0.73344823
0.73880446
0.74416228
0.74958053
0.75197702
0.75002695
0.74461025
0.73620194
0.72867073
0.72548911
0.72607067
0.73047556
0.73675046
0.74079434
0.74331314
0.7452774
0.74605195
0.74824797
0.75044913
0.74871613
0.74331432
0.73461592
0.72502042
0.72055454
0.72289304
0.73004294
0.73893696
0.74350758
0.74075683
0.73274885
0.7216313
0.7111348
0.70391221
0.69814828
0.69344547
0.6900585
0.68701941
0.68666096
0.68990823
0.69419615
0.69952643
0.70471957
0.7075155
0.71075612
0.71520425
0.7193714
0.72365479
0.72510824
0.72081032
0.71292651
0.70395388
0.69785584
0.6995334
0.70795217
0.7190699
0.72872774
0.73208478
0.72955447
0.7253441
0.72151706
0.72002115
0.72007058
0.7173666
0.71146483
0.70323067
0.69245187
0.68247288
0.67510402
0.66985212
0.66975889
0.67436835
0.68004091
0.6855462
0.68867457
0.68948721
0.6928434
0.70045537
0.71069783
0.72074054
0.72499157
0.72173407
0.71510721
0.70931116
0.70880682
0.71511818
0.72387823
0.7317093
0.736719
0.73813651
0.7378198
0.73591888
0.73193249
0.7278036
0.72344707
0.71663649
0.70637142
0.69268471
0.68084829
0.67878515
0.68622123
0.69377432000000006
0.69119341
0.67835582
0.67123856
0.68685234
0.72075548
0.74612025
0.73628703
0.69550266
0.66628147
0.69065823
0.76026938
