0.90785126
0.90554048
0.94062704
0.98609667
1.0169922
1.0251317
1.0188565
1.0137752
1.0219992
1.0452487
1.0744323
1.0958961
1.1017816
1.0934437
1.0792136
1.0675216
1.0646411
1.0701725
1.0787971
1.0835107
1.0818188
1.0746737
1.0648713
1.0549196
1.0471902
1.0417997
1.0368474
1.0308582
1.0240659
1.0170571
1.0093192
1.0013664
0.99378781
0.98678166
0.97831215
0.97022936
0.9622138
0.95339437
0.94239849
0.93122713
0.92059171
0.91042589
0.90102562
0.89402545
0.88931252
0.8851571
0.88153334
0.87908985
0.87796627
0.87713389
0.87884077
0.88432458
0.89376522
0.90480476
0.91864769
0.93404275
0.94917428
0.96191945
0.97360617
0.98423016
0.99303341999999994
0.99983388
1.0060422
1.011515
1.0147321
1.0161269
1.0168185
1.0170999
1.015608
1.013903
1.0125474
1.0112851
1.0077102
1.0036011
0.99885992
0.9929905
0.98490238
0.97658832
0.96845238
0.95994165
0.95089
0.94281627
0.9359426
0.92916866
0.92291534
0.91801904
0.91431719
0.91002586
0.90617717
0.90341349
0.90220839
0.90149871
0.90409743
0.91071773
0.92090812
0.93273555
0.94633339
0.95993
0.97105593
0.97843988
0.98331102
0.98638317
0.98750868
0.98830057
0.99041095
0.99390505
0.99659213
0.99904123
1.0011098
1.0024122
1.0009547
0.99935214000000006
0.99821668
0.99730644
0.99517885
0.9931552
0.99080223
0.9869423
0.98125328
0.9755453
0.97033914
0.96455528
0.95839635
0.95235943
0.94609879
0.93803034
0.92987231
0.92289311
0.91760985
0.91211535
0.90784288
0.90424211
0.90064755
0.89651131
0.89482121
0.89723515
0.90398104
0.9146631
0.9292496
0.94571346
0.96087711
0.97400476
0.98568142
0.9961992
1.0043552
1.0116257
1.0184043
1.0244531
1.0277467
1.0308742
1.0344784
1.0382242
1.0402752
1.041373
1.0404871
1.0361445
1.0283013
1.0196542
1.0117293
1.0040632
0.99694117
0.99039535
0.98327015
0.97320309
0.96186585
0.95110478
0.94233166
0.93419344
0.92840492
0.92378667
0.91826815
0.90945805
0.899083
0.88845812
0.87868436
0.87135029
0.869361
0.87362509
0.88298605
0.89736987
0.91672807
0.93964501
0.9627233
0.98536295
1.0064032
1.0247482
1.0383031
1.0498207
1.0604042
1.0703985
1.0788678
1.0870484
1.0940419
1.0980974
1.098585
1.0972751
1.0951123
1.0918587
1.0887495
1.086946
1.0861417
1.0841244
1.0816421
1.0789095
1.0758264
1.0705301
1.0652021
1.0600525
1.0546486
1.0477692
1.0410556
1.0346031
1.0275891
1.0195193
1.0114116
1.0029167
0.9923774
0.97985671
0.96629191
0.95223941
0.93711668
0.9234622
0.91303897
0.90665975
0.90256332
0.90245704
0.90553831
0.91028551
0.91467974
0.92003432
0.92623316
0.93234554
0.9379849
0.94425854
0.95063032
0.95514226
0.9579152
0.95986521
0.96124738
0.96081812
0.9605092
0.96116415
0.96264785
0.96243978
0.96226064
0.96178501
0.96038192
0.95705305
0.95418616
0.95249793
0.951569
0.95115988
0.9523686
0.95455955
0.9556255
0.95535665
0.95439856
0.9528954
0.94973495
0.94679603
0.94503656
0.9444342
0.94266618
0.94115702
0.93973106
0.93823223
0.93639311
0.93706979
0.94134978
0.94866413
0.95791829
0.96888843
0.97985755
0.98825455
0.99402506
0.99841007
1.0021578
1.004268
1.0061838
1.0081204
1.0095145
1.008023
1.0058443
1.003641
1.0016156
0.99894929
0.99729732
0.9962254
0.99417199
0.99021843
0.98561525
0.98078637
0.97511483
0.96963106
0.96552457
0.96257595
0.95858143
0.95421868
0.94982376
0.94578062
0.94105897
0.938708
0.93933197
0.94200204
0.94411273
0.94550002
0.9449606
0.94174899
0.93713906
0.93489365
0.93722395
0.94367628
0.95352136
0.96490773
0.97482545
0.97988191
0.98140017
0.98150095
0.9822798
0.98326835
0.98649561
0.99068524
0.99358152
0.99291101
0.99054989
0.98776719
0.98513835
0.98312653
0.98284764
0.98328025
0.98199981
0.97891056
0.97525404
0.97187853
0.96793892
0.96488296
0.96269703
0.96039147
0.95515616
0.94866451
0.94118904
0.93268134
0.92226336
0.9116232
0.90073812
0.88889221
0.8763144
0.86529962
0.85700237
0.85104387
0.84808648
0.84863387
0.85201123
0.85613696
0.86207835
0.87040601
0.88114459
0.89220534
0.90490879
0.91828561
0.93078627
0.94052032
0.9488114
0.95569756
0.96043481
0.96275872
0.96397133
0.96413136
0.96224828
0.95939689
0.95731795
0.95667285
0.9559985
0.95615944
0.95678686
0.95679587
0.95340885
0.948548
0.94281786
0.93663991
0.92965363
0.92402362
0.91973106
0.91533024
0.90959203
0.90317513
0.8960131
0.88740586
0.87865231
0.8716754
0.8672406
0.86400886
0.86270964000000006
0.86312053
0.86458185
0.86506294
0.86676243
0.87046145
0.87643272
0.88394769
0.89436024
0.90695903
0.9199111
0.93198173
0.94379116
0.95501021
0.96424232
0.97183194
0.97854
0.98419301
0.98706067
0.9885521
0.98955342
0.99043102
0.98939189
0.98854938
0.98781537
0.98640068
0.98277112
0.97857582
0.97405649
0.96862411
0.96211126
0.9560296
0.95047031
0.94406945
0.93699927
0.92995982
0.92273665
0.91351764
0.90338982
0.89305803
0.8829949
0.87204141
0.86305159
0.85703599
0.85420812
0.85367
0.85697263
0.86399534
0.87373058
0.88568186
0.90092945
0.91907616
0.93807925
0.95710374
0.97545851
0.99165645
1.0031839
1.0111167
1.0164485
1.0200374
1.0209001
1.0217957
1.0231088
1.0243207
1.0240578
1.0239118
1.0239322
1.0232888
1.0216093
1.0201445
1.0187071
1.0157289
1.0113851
1.0065047
1.0011331
0.99379472
0.98596745
0.97849877
0.97167886
0.96381213
0.95697301
0.95120544
0.94576427
0.93894623
0.93176259
0.92390191
0.91452467
0.90367003
0.89346512
0.88510614
0.87853176
0.87502764
0.87585921
0.88084198
0.88773459
0.89688867
0.90778531
0.91946242
0.92932475
0.93910432
0.94872968
0.9576702
0.9647369
0.97164532
0.97837375
0.98391475
0.98781202
0.99139046
0.99460022
0.99597559
0.99582089
0.99496507
0.99330947
0.98913189
0.98396135
0.97872396
0.97379636
0.9674061
0.96194035
0.95765801
0.95411271
0.94994904
0.94681656
0.94465209000000006
0.94233848
0.93909393
0.93590356
0.93258547
0.92788591
0.92241122
0.9175182
0.91374145
0.90997084
0.90766842
0.90753924
0.9097667
0.91278704
0.91881504
0.92803888
0.93975266
0.95217845
0.96588547
0.97982934
0.99240152
1.0030435
1.0131803
1.0231013
1.0316637
1.0391289
1.0459507
1.0517034
1.0546792
1.0565426
1.0583852
1.0605143
1.0607463
1.0604384
1.0587567
1.0545741
1.0466873
1.0375642
1.0284088
1.0192596
1.0099343
1.0012381
0.99224459
0.98082792
0.96711733
0.95249722
0.93791001
0.9226962
0.90862503
0.89626859
0.88531899
0.87360393
0.86320518
0.85480617
0.84884646
0.84505748
0.84566955
0.8508886
0.85958609
0.87081491
0.88497451
0.9009791
0.91638413
0.93049731
0.94316629
0.95367383
0.96028545
0.96479587
0.9685223
0.9722861
0.97478495
0.97849548
0.98339172
0.98855617
0.99225232
0.99576813
0.99874268
0.99996877
0.99888371
0.99674512
0.99359152
0.98833242
0.98179895
0.97540613
0.96959598
0.96303866
0.95700743
0.95182815
0.94711707
0.9406046
0.93397428
0.92728885
0.92026001
0.91198775
0.90429026
0.89748598
0.89097759
0.88455294
0.87961768
0.87647895
0.87430944
0.8739143
0.8764945
0.88221486
0.88944861
0.89900577
0.91058761
0.92309132
0.93349924
0.94282836
0.95046835
0.9556624
0.95739558
0.95792736
0.95806816
0.95767043
0.95690275
0.95733542
0.9588289
0.95961037
0.95953202
0.95900256
0.95766433
0.95375106
0.94871786
0.9434702
0.93839637
0.93185251
0.92617309
0.92163735
0.91785371
0.91359856
0.91046264
0.90841959
0.90648246
0.90400425
0.9018897
0.89972573
0.89589337
0.89059012
0.88500858
0.88012176
0.87592413
0.87525344
0.8798497
0.88995108
0.90275112
0.9182444
0.9341958
0.94824322
0.95835122
0.96633122
0.97311765
0.97883072
0.98365424
0.98879408
0.9937812
0.99687235
0.99841331
0.9996594
1.0010256
1.0009396
1.0002494
0.99871371
0.99558836
0.98869214
0.98070476
0.97296657
0.96629574
0.96019772
0.95623741
0.9536545
0.95046787
0.94536971
0.93936097
0.9328144
0.92519751
0.91758641
0.91131196
0.90651201
0.90156769
0.89748603
0.89461298
0.89277356
0.89000726
0.88820397
0.88772254
0.88878321
0.89128123
0.89781502
0.90895809
0.92355733
0.94001982
0.95758789
0.9740875
0.98663565
0.99500754
1.0003293
1.0034305
1.0037008
1.0031626
1.0026175
1.0019874
0.99922317
0.99646593
0.99401449
0.99159546
0.98803169
0.98473905
0.9813093
0.97644482
0.96959335
0.96222478
0.95483884
0.94677654
0.93884849
0.93196853
0.92577309
0.91815209
0.90980349
0.901087
0.89232044
0.88243122
0.87423179
0.86848958
0.86492066
0.86199596
0.86048683
0.85976789
0.85888083
0.85803682
0.85946404
0.86413683
0.87122313
0.88071039
0.89223176
0.90423088
0.91389354
0.92196429
0.92899524
0.93520971
0.93872794
0.94139972
0.94285164
0.94228053
0.93864364
0.93445474
0.93083888
0.92775771
0.925054
0.92363125
0.92267168
0.920133
0.91616552
0.91201423
0.90830214
0.90390155
0.90005417
0.89679661
0.8933739
0.8873484
0.88069718
0.87421737
0.868587
0.86375276
0.86196613
0.86333716
0.86648226
0.87006943
0.8743921
0.87891603
0.88243339
0.88580841
0.89071372
0.89798387
0.90659952
0.91773083
0.93123469
0.9459283
0.95853542
0.96978557
0.97893841
0.98528125
0.98795331
0.98927924
0.9900719
0.99003894
0.98901552
0.98819074
0.98726998
0.98461052
0.9803543
0.97539693
0.96993523
0.96266809
0.9551992
0.94846463
0.94279771
0.93649833
0.93171399
0.92859375
0.92654458
0.92402293
0.92218474
0.92072995
0.91867537
0.9157201
0.9134251
0.91222816
0.91122537
0.91082004
0.91163575
0.91331931
0.91407082
0.91495653
0.91652243
0.91887133
0.92029452
0.92283095
0.92664209
0.93144697
0.93643966
0.94352209
0.95270096
0.96262756
0.97202184
0.98093184
0.98828213
0.99232376
0.99375497
0.9942315
0.99457856
0.99364371
0.99259376
0.99136561
0.98920223
0.98367824
0.97695757
0.96975292
0.96235674
0.9540699
0.94672909
0.94020921
0.93330715
0.9253826
0.91781784
0.91095476
0.90387021
0.89711936
0.89153747
0.88685794
0.88118447
0.87563602
0.87096157
0.86761767
0.86419155
0.86295516
0.8638393
0.86573858
0.8665965
0.86734572
0.8680221
0.86867626
0.87057047
0.87665422
0.88787865
0.90264119
0.91965458
0.93720686
0.9528503
0.96373847
0.97135833
0.97752364
0.98373164
0.9889557
0.99503313
1.0009581
1.0050042
1.0053406
1.0040008
1.0020761
0.99971929
0.99693521
0.99471864
0.9923435
0.98792298
0.9818882
0.97592952
0.97102168
0.96600377
0.9617692
0.95789736
0.95327115
0.9452839
0.93621929
0.92730549
0.91940004
0.91204948
0.90679378
0.90282056
0.89805552
0.89111165
0.8831046
0.87485736
0.8665786
0.86025672
0.85807481
0.86065836
0.86627694
0.87546958
0.8877607
0.90216173
0.91604025
0.93098963
0.94673388
0.96235534
0.97611269
0.98909769
1.0009215
1.0106617
1.0183504
1.0258831
1.033617
1.0400684
1.0449257
1.0481004
1.048845
1.0455212
1.0402884
1.0350643
1.0310233
1.0266128
1.0233604
1.0202278
1.0156704
1.0081147
0.99979637
0.9920645
0.98538273
0.97998115
0.97672697
0.97441706
0.97035825
0.96383577
0.95550178
0.94607546
0.93537011
0.92594287
0.91935965
0.91608657
0.91421816
0.91512905
0.91817074
0.92216675
0.92545124
0.92934819
0.93384415
0.93821274
0.94236307
0.94779052
0.95446115
0.96073799
0.96655116
0.97214935
0.97680067
0.97823335
0.97756451
0.97545131
0.97228426
0.96665017
0.96142396
0.95720842
0.95364926
0.94927364
0.94541943
0.94177914
0.93737813
0.93207187
0.92758186
0.92409154
0.92001431
0.91503296
0.90920671
0.90206708
0.89236994
0.88257101
0.87485443
0.87063616
0.86869077
0.87068842
0.87580002
0.88261605
0.88953082000000006
0.8983213
0.90952873
0.92254952
0.93654
0.95147734
0.96571517
0.97664776
0.98413457
0.98935924
0.99315327
0.99476142
0.99590197
0.9970089
0.9976677
0.99561906
0.99308896
0.99070796
0.98860327
0.98584551
0.984015
0.98264327
0.98017234
0.97570378
0.97054635
0.96514024
0.95880565
0.95242997
0.94711919
0.94266721
0.93698121
0.93082773
0.924643
0.91878461
0.91207262
0.90725512
0.90492258
0.9044547
0.90380735
0.90340894
0.90244824
0.90003469
0.89670554
0.89525041
0.89720014
0.90214361
0.91024811
0.92113566
0.93319035
0.94368218
0.95351324
0.96350613
0.97415831
0.9837732
0.99389159
1.0034789
1.0108183
1.013982
1.0148017
1.0142295
1.0125806
1.0103983
1.009283
1.0087895
1.0067398
1.0027883
0.99765087
0.99176448
0.98436111
0.97766376
0.97282564
0.96977035
0.96576085
0.96170786
0.95664956
0.94947846
0.93894982
0.9273285
0.91567301
0.90410382
0.89281597
0.88320793
0.87508755
0.86698149
0.85934001
0.85363746
0.85095075
0.85098554
0.85587844
0.86628299
0.88137902
0.89774446
0.91539781
0.93254569
0.94743028
0.95849341
0.96772198
0.97590953
0.98298722
0.98914696
0.99574415
1.0023572
1.0070397
1.0097254
1.0111814
1.0116608
1.010079
1.0083505
1.007339
1.0068449
1.004269
1.0009394
0.99645326
0.99036524
0.98205639
0.97411139
0.96734985
0.96111285
0.95446062
0.94760271
0.93950658
0.92846365
0.91520014
0.90172749
0.88954698
0.87841699
0.87009238
0.86499648
0.86262157
0.86069778
0.8610043
0.86396166
0.86966372
0.87737851
0.88857475
0.90254959
0.91727332
0.93111038
0.94415519
0.95558171
0.96374034
0.96910002
0.9728001
0.97518622
0.97502154
0.974096
0.97336847
0.97307141
0.97238733
0.97182588
0.96989595
0.96532525
0.95832448
0.95137248
0.94582543
0.94163565
0.93797843
0.93336147
0.92614542
0.91669027
0.90898869
0.90672809
0.91005007
0.91417162
0.91295933
0.90088933
0.87857364
0.85421204
0.84174647
0.84960943
0.87466321
0.90171222
0.91180042
0.89293901
0.85142185
0.81326945
0.81114407
0.863143
0.95687514
1.0491718
