0.88124488
0.88078409
0.91722602
0.96470579
0.99658808
1.0014662
0.98480969
0.96258273
0.95039605
0.95651203
0.97753549
1.0021137
1.0188588
1.023314
1.0179134
1.0086009
1.0017089
1.0009285
1.0054127
1.0105627
1.0127202
1.0105928
1.0049602
0.9967281
0.98848888
0.98215376
0.97838665
0.97544034
0.97308947
0.97072988
0.96797027
0.96393165
0.96030731
0.95876613
0.9600731
0.96342503
0.96926955
0.97579302
0.98053025
0.98236444
0.98327573
0.98466928
0.98662006
0.98927997
0.99279353
0.9956613
0.99538956
0.99239591
0.98863639
0.98582975
0.98388892
0.98441052
0.98741518
0.99150107
0.99343255
0.99398065
0.99353076
0.99266911
0.9901493
0.98842509
0.98735966
0.98593534
0.98193029
0.97688848
0.97131462
0.96577365
0.96078052
0.95927132
0.96197199
0.9677463
0.97483253
0.98275178
0.9897144
0.9934066
0.99353442
0.99187991
0.98976482
0.98727936
0.9859771
0.98708908
0.99031553
0.99340638
0.99666441
1.000153
1.0035528
1.0049804
1.00599
1.0068973
1.0075456
1.0058292
1.0037535
1.0014465
0.9986561
0.99394588
0.98917434
0.98447315
0.97944397
0.97345907
0.96861693
0.96552626
0.96382609
0.96326289
0.96509967
0.96898162
0.9732676
0.97735407
0.98181245
0.986271
0.9891982
0.99104413
0.99271756
0.99432067
0.99441132
0.99416396
0.99427878
0.99474431
0.9937296
0.992789
0.9923241
0.99237416
0.99103283
0.99048327
0.99082974
0.99156857
0.99079748
0.98989569
0.98850362
0.98581339
0.9809059
0.97577668
0.97102852
0.96639736
0.96184045
0.9589566
0.95782961
0.95734882
0.95748077
0.95927365
0.96261514
0.96594675
0.96941544
0.97345617
0.97768985
0.98036419
0.98254878
0.98508052
0.9882004
0.99029783
0.99292208
0.99625305
0.9999756
1.0018693
1.0038981
1.0061622
1.0083531
1.008893
1.0094294
1.009768
1.0090921
1.0063032
1.0030701
0.99966521
0.99555888
0.99053826
0.98609593
0.98231747
0.97820028
0.97391577
0.97078941
0.96911647
0.96788052
0.96778583
0.96968711
0.97338049
0.97697052
0.98100191
0.98555269
0.99005973
0.99228096
0.99341507
0.99372007
0.99331347
0.99061631000000006
0.98821611
0.98671878
0.98609684
0.98482665
0.98449131
0.98480556
0.98488666
0.98358387
0.98252129
0.98178236
0.98045848
0.97781368
0.97480479
0.97111567
0.96564328
0.95883812
0.95255852
0.94767271
0.94358487
0.94116347
0.94113707
0.94307947
0.94502603
0.94773489
0.9517067
0.9568594
0.96128025
0.96613693
0.97127797
0.9761656
0.9785474
0.98045087
0.98217657
0.98363838
0.98347207
0.98354696
0.98402134
0.9845947
0.98474147
0.98649488
0.98994815
0.99364385
0.99579545
0.99615835
0.99350994
0.98649213
0.97604713
0.96511173
0.95576436
0.94823262
0.94349723
0.94173862
0.94163242
0.94042953
0.93860269
0.93705787
0.93666494
0.93664343
0.93901168
0.94392389
0.95048985
0.95561897
0.96034644
0.96429854
0.96722426
0.96804574
0.96906779
0.97069903
0.97238864
0.97287938
0.97340236
0.97376678
0.97316427
0.97139399
0.97024136
0.97006066
0.96980206
0.96915289
0.96865563
0.96778709
0.96502989
0.96115337
0.95756548
0.95486575
0.95193076
0.94985577
0.94899963
0.94904498
0.94821841
0.94831954
0.95018488
0.95411218
0.9580528
0.96341579
0.96941002
0.97486419
0.9777716
0.97994297
0.98188574
0.98352787
0.98408936
0.98502377
0.9860088
0.98585257
0.98397525
0.98210618
0.98095379
0.980103
0.97987774
0.98116968
0.98323507
0.98372568
0.98224039
0.97917856
0.9747094
0.96806388
0.96134186
0.95612753
0.95293255
0.949979
0.94831061
0.9476703
0.94763875
0.94638198
0.94652686
0.9490061
0.95410133
0.96029221
0.96864667
0.97801757
0.98652279
0.99218927
0.99628196
0.99918109
1.0007529
1.0012002
1.0023407
1.004312
1.0058674
1.0067521
1.0078497
1.0090128
1.0087956
1.0076032
1.0061484
1.0042639
1.0003283
0.99547328
0.99057542
0.98598581
0.98035204
0.97554108
0.97206914
0.96987494
0.96690564
0.96508087
0.96451354
0.96505633
0.96549664
0.96781365
0.9720484
0.9772421
0.9816797
0.98609619
0.9899437
0.9922729
0.99295282
0.99396453
0.99587765
0.99768762
0.99891676
0.99984645
0.99978425
0.99729268
0.99356809
0.99064673
0.98964684
0.98954111
0.99100889
0.99348445
0.99547061
0.99410441
0.99065826
0.98601527
0.98113332
0.97505884
0.97038089
0.96715381
0.96463938
0.96095006
0.95778391
0.95551227
0.95412026
0.95313515
0.95431838
0.95748328
0.96123103
0.96436173
0.96760301
0.97063669
0.97234266
0.97292274
0.97378353
0.97523406
0.97616586
0.97716302
0.97892955
0.9811148
0.98175374
0.98153025
0.9808498
0.97971671
0.97664366
0.97356485
0.97111991
0.96929953
0.96594254
0.96268095
0.95924446
0.95521094
0.94941921
0.94433934
0.94086738
0.93915548
0.93859509
0.94058852
0.94456213
0.94884996
0.95217178
0.95531793
0.95816122
0.95982847
0.96069016
0.96217715
0.96449665
0.96635176
0.9680567
0.97011776
0.97214912
0.97231955
0.97152485
0.97044973
0.96934661
0.96686768
0.964921
0.96402614
0.96397519
0.96238163
0.9606691
0.95845065
0.95528493
0.95005901
0.94525097
0.94170271
0.9393918
0.93744322
0.93699974
0.93741736
0.9372545
0.93575773
0.93444063
0.93390381
0.93377131
0.93450573
0.93722528
0.94153808
0.94545432
0.9487256
0.95161435
0.95383582
0.95392406
0.95324977
0.95295809
0.95361865
0.95398721
0.95583393
0.95934535
0.96382328
0.96628511
0.96763122
0.96711312
0.96417105
0.9578236
0.95092083
0.9448042
0.93994238
0.93582763
0.93380922
0.93328835
0.9327488
0.93129914
0.93030151
0.93023079
0.93063848
0.93196327
0.93532936
0.94039459
0.94527287
0.94982164
0.9543998
0.95878549
0.96149847
0.96366484
0.96599528
0.96847874
0.96930424
0.96984766
0.97039614
0.970946
0.96970966
0.96889911
0.96879159
0.96911231
0.96822827
0.96757308
0.96680523
0.96502019000000006
0.96110943
0.95675147
0.95238379
0.9477628
0.9430005
0.93984298
0.9385006
0.93787067
0.93771221
0.9387453
0.94065491
0.94194758
0.94300888
0.94462937
0.94677525
0.94789136
0.94886245
0.95016393
0.95169192
0.95174332
0.95191084
0.95269854
0.95419327
0.95452987
0.95565273
0.95753281
0.95970258
0.96056104
0.96175784
0.96320816
0.96413348
0.96328881
0.96195504
0.96000154
0.95665953
0.95175822
0.94709561
0.94323194
0.93957148
0.93636649
0.93462464
0.93409954
0.93326373
0.93247765
0.93257881
0.93372355
0.93466569
0.93652563
0.93978392
0.94404222
0.947038
0.9496586
0.95178887
0.95318044
0.95202227
0.95060896
0.94943938
0.94852769
0.94656567
0.945322
0.94479646
0.94438749
0.94317246
0.94285369
0.94363014
0.94471135
0.94539342
0.94649965
0.94738727
0.94636584
0.94306327
0.93856549
0.93334286
0.92694179
0.92079829
0.91643974
0.91410115
0.91206087
0.91078822
0.91035974
0.91055662
0.90994116
0.91061438
0.91353729
0.91884586
0.92412858
0.93024235
0.9359738
0.94003145
0.94072935
0.94046478
0.94052500000000006
0.94158497
0.94336652
0.94730427
0.95259743
0.95724969
0.95973562
0.96083564
0.96063005
0.95854526
0.95517207
0.9520139
0.94929099
0.94580533
0.94210366
0.93909826
0.93692212
0.93425076
0.93219722
0.93139622
0.93185095
0.93194728
0.9332552
0.93615203
0.94042693
0.94376187
0.94744217
0.95089168
0.95331291
0.95310866
0.95226881
0.95144576
0.9507492
0.94970563
0.95006112
0.95180834
0.95387731
0.95541909
0.95739959
0.95952851
0.96043927
0.95982814
0.95854455
0.95650907
0.95255023
0.94753926
0.94283868
0.93894894
0.93470842
0.93125845
0.92911253
0.92805967
0.92625228
0.92515274
0.92515091
0.92621693
0.92637888
0.92740069
0.92917792
0.9313116
0.93245108
0.93458065
0.93802645
0.9422948
0.94615001
0.95055545
0.95488412
0.95781152
0.95870968
0.959179
0.95982771
0.96023402
0.96084436
0.96285435
0.96608317
0.96887715
0.97137562
0.97412812
0.97688822
0.97790742
0.97795149
0.97738278
0.97604712
0.97230255
0.9679379
0.96366836
0.95972105
0.95427686
0.94921681
0.94457527
0.94019757
0.93509062
0.9316881
0.93068763
0.93174348
0.93347404
0.93652535
0.93995247
0.94227342
0.94290171
0.94361949
0.94512639
0.94678372
0.94848912
0.95080429
0.95317358
0.95411182
0.95451575
0.95598562
0.95912351
0.96237516
0.96596996
0.96925108
0.97106242
0.96925259
0.96585716
0.96234387
0.95973175
0.95652749
0.95435221
0.95242409
0.94973633
0.94491341
0.94074266
0.93876927
0.93962035
0.94255365
0.94817386
0.95482029
0.96000422
0.96233616
0.9633404
0.96411646
0.96487249
0.96634734
0.96949291
0.97345706
0.97584273
0.97639084
0.9758926
0.97496258
0.97302434
0.97196206
0.97285104
0.97559738
0.97790998
0.98049088
0.98277619
0.98383362
0.98102733
0.97605806
0.96929404
0.96133513
0.95212398
0.94498361
0.94111947
0.94027273
0.94080651
0.9429254
0.94520185
0.94584944
0.94429872
0.94267604
0.94225746
0.94305595
0.94544518
0.9500396
0.95579032
0.96024877
0.96317423
0.96531319
0.96714159
0.96789081
0.96926921
0.97222306
0.97664726
0.98037797
0.98441248
0.98852755
0.99209548
0.99259593
0.99163793
0.98913422
0.98494392
0.97815797
0.97146336
0.96587089
0.96151313
0.95766976
0.95577553
0.9554454
0.95539836
0.95487697
0.95526783
0.95682161
0.95865399
0.96070011
0.96369772
0.96707286
0.96889847
0.96923448
0.96884706
0.96804244
0.96591183
0.96415124
0.96391411
0.96541661
0.96678877
0.96918302
0.97249317
0.97626114
0.97823053
0.98031079
0.98253344
0.98444603
0.98427469
0.98356513
0.98221155
0.97970771
0.97545553
0.97177567
0.96957001
0.96875813
0.96925062
0.97228915
0.97729145
0.98226772
0.98626959
0.98968249
0.99225235
0.99285157
0.99243085
0.9922445
0.99235228
0.99085052
0.98816326
0.98446122
0.97982932
0.97333486
0.96791809
0.96536637
0.9664327
0.9688916
0.97359132
0.9790319
0.98362076
0.98545478
0.98693722
0.98924145
0.99263275
0.99607051
1.0001638
1.0034746
1.0039349
1.0006795
0.99569326
0.99022344
0.98434093
0.97859636
0.97392984
0.96991321
0.96514916
0.96076531
0.95877532
0.96029859
0.96418237
0.97072737
0.9788407
0.98649631
0.99046216
0.99194726
0.99204731
0.99201234
0.99100351
0.99155559
0.99345419
0.99559443
0.99573305
0.99542502
0.99504538
0.99465537
0.99382764
0.99435579
0.99604472
0.997497
0.99759093
0.99722925
0.99628356
0.99379107
0.99000065
0.98617565
0.98237666
0.9773148
0.97161554000000006
0.96634684
0.96190717
0.95738147
0.95444378
0.95415109
0.95658853
0.95973404
0.96442372
0.97007573
0.97567669
0.9785494
0.98034235
0.98126748
0.98150014
0.98023089
0.97983782
0.9806588
0.98201157
0.98251957
0.98331896
0.98416711
0.98425179
0.98337466
0.98321931
0.98389099
0.98397447
0.98277057
0.98052784
0.97669116
0.97004835
0.96193797
0.95440412
0.94853161
0.94335105
0.93973698
0.93754249
0.93587746
0.93255324
0.9293657
0.92749859
0.92785321
0.92902152
0.93280711
0.93836663
0.94405538
0.94719193
0.94893495
0.9494851
0.94900551
0.94748899
0.94737132
0.94916954
0.95206471
0.95520386
0.95937574
0.96397784
0.96735005
0.96901502
0.96969653
0.96920869
0.96631081
0.96184534
0.95714522
0.95276172
0.94772415
0.9435067
0.9409773
0.94021886
0.93950771
0.94029182
0.94273722
0.94648596
0.94918736
0.9524343
0.9560207
0.9594757
0.96128582
0.9632536
0.96545444
0.96720891
0.96730036
0.96713526
0.96687492
0.96614096
0.96511032
0.96580272
0.96862694
0.97230948
0.97598675
0.97944762
0.98136514
0.97952434
0.97431322
0.96734549
0.95999804
0.95226777
0.94635292
0.94329315
0.94266814
0.94176682
0.94108614
0.94037751
0.93971864
0.93799489
0.93834635
0.94176776
0.94807794
0.95497351
0.96269861
0.96970211
0.97434051
0.97550162
0.97562091
0.97614477
0.97746771
0.97952676
0.98312627
0.98704909
0.988867
0.98778554
0.98506887
0.98179538
0.97818341
0.9761299
0.9771863
0.98110005
0.98527039
0.98930994
0.99253875
0.99414111
0.99222412
0.98882318
0.98512525
0.98191928
0.97783398
0.97503234
0.973373
0.97206482
0.96918617
0.96633633
0.96388908
0.9620024
0.96057456
0.96184141
0.96600988
0.97171469
0.97730818
0.98275154
0.98697905
0.98847727
0.98759054
0.98632732
0.98574755
0.98528644
0.98564514
0.98729512
0.98954688
0.99026111000000006
0.99030627
0.99056092
0.99149079
0.99172472
0.99283782
0.99475252
0.9966544
0.99579857
0.99367758
0.99027546
0.9855784
0.97870453
0.97212592
0.96651887
0.96181362
0.95742158
0.95515021
0.9551017
0.95629919
0.95789672
0.96072942
0.96431492
0.96719612
0.96918261000000006
0.97134178
0.97371676
0.97498877
0.97558758
0.97624885
0.97692459
0.97622483
0.97556149
0.97600059
0.97786063
0.97943131
0.98195613
0.98514777
0.9881311
0.98815495
0.98676014
0.98389783
0.97946168
0.97245961
0.96530756
0.95869601
0.95262424
0.94660055
0.94250582
0.94049299
0.93966834
0.939339
0.94050219
0.94286771
0.94519832
0.94751
0.95100375
0.95578486
0.96048664
0.96529943
0.97051944
0.97548094
0.97807542
0.97901725
0.9789409
0.97815236
0.97541774
0.972919
0.9716212
0.97192448
0.97202078
0.97383654
0.97697548
0.98026976
0.98115744
0.98050893
0.97785918
0.97272942
0.96485967
0.95698111
0.95026212
0.94457987
0.93953241
0.93604111
0.93352466
0.93054583
0.92726116
0.92544891
0.92602049
0.92834318
0.93299101
0.94019482
0.94880507
0.95600152
0.96179577
0.96637155
0.96987545
0.97113058
0.97236731
0.97451509
0.97780196
0.98021455
0.98356618
0.9876462
0.9918242
0.99431493
0.99668631
0.99878349
1.000077
1.0000947
0.998938
0.9956992
0.98997971
0.98333445
0.97844063
0.97661036
0.97727505
0.97913912
0.97997238
0.97780049
0.97290596
0.96950226
0.97178211
0.98078947
0.99272392
1.0018678
1.0020158
0.99155734
0.97567166
0.96600396
0.9712822
0.99148733
1.0153133
1.027247
1.0143628
0.97764145
0.935127
0.91554963
0.93961318
1.0051657
1.0816382
1.1194247
