0.70934544
0.75076953
0.78871117
0.79643914
0.77874231
0.75901478
0.75631118
0.77123332
0.7886555
0.79459142
0.78900623
0.78131003
0.7795976
0.78482579
0.78991157
0.78706448
0.77657803
0.76398177
0.75380383
0.74834776
0.74562341
0.74147534
0.7361456
0.73206394
0.73042014
0.73204645
0.73612565
0.73955096
0.74228139
0.74488795
0.74678134
0.74925919
0.75351013
0.75817506
0.76258988
0.76721622
0.77075706
0.77234281
0.77301236
0.77192872
0.76791501
0.76268972
0.75642587
0.74835634
0.74133674
0.73635777
0.73207473
0.73084705
0.73249757
0.7346452
0.73830587
0.74360118
0.74913376
0.75620755
0.76545258
0.77506138
0.78447503
0.79338123
0.80002408
0.80431965
0.80767836
0.80954177
0.80915662
0.80727684
0.80299471
0.7956943
0.78835378
0.78256422
0.77828551
0.77797241
0.78123219
0.78498024
0.79017653
0.79602022
0.80014508
0.80370117
0.80678546
0.80782849
0.80790594
0.80766273
0.80571935
0.80220522
0.79752745
0.79061296
0.78207611
0.77417989
0.76753742
0.76278698
0.76176634
0.76372851
0.76700355
0.77246493
0.77914516
0.78494676
0.79144825
0.79838876
0.8033887
0.80825388
0.81263551
0.81424895
0.81424069
0.81263209
0.80775496
0.80085057
0.7929606
0.78337562
0.77337232
0.76451414
0.75626688
0.74912344
0.74463949
0.7422013
0.74132
0.74334841
0.74748853
0.75231996
0.7592354
0.7676595
0.77562355
0.78471174
0.79471825
0.80334196
0.81216517
0.82037079
0.82493664
0.82626408
0.82423996
0.81800416
0.81035722
0.80375295
0.79786504
0.79320289
0.7900807
0.78730254
0.78591668
0.7887709
0.79599226
0.8062299
0.81851619
0.82950719
0.83644743
0.84123788
0.84516478
0.84808762
0.852148
0.85650068
0.85774796
0.85673287
0.85281148
0.84382058
0.83142225
0.81694067
0.80099213
0.78786063
0.78112149
0.78054458
0.78535962
0.79332418
0.80007322
0.80407529
0.80727529
0.81100105
0.81665873
0.826068
0.83726561
0.8468093
0.85421183
0.85821121
0.85749696
0.85482876
0.85097039
0.84407805
0.83615359
0.82728879
0.81644312
0.80697207
0.80115494
0.79871517
0.80092537
0.8071963
0.8143022
0.8212118
0.82789381
0.83317703
0.83746591
0.84205564
0.84580489
0.84746848
0.8475339
0.84495273
0.83887651
0.83166516
0.82407363
0.81556618
0.80878258
0.80416464
0.79981863
0.79783955
0.79781051
0.79702986
0.79643841
0.79612346
0.79493604
0.79498175
0.79728492
0.79942249
0.79967815
0.79665241
0.78853109
0.77699703
0.76644806
0.7590108
0.75513376
0.75477306
0.75488184
0.75285322
0.75065616
0.749864
0.75096536
0.7564982
0.76529032
0.77322494
0.78065429
0.78700527
0.79112513
0.79578948
0.80201875
0.80807017
0.81420719
0.82018983
0.82446125
0.82803152
0.83229476
0.83599999
0.83793408
0.83730732
0.83179673
0.82087665
0.80762646
0.79417729
0.7819307
0.77363244
0.76869763
0.76450904
0.76165174
0.75935528
0.75542465
0.7519577
0.74939526
0.74661506
0.74571751
0.74721562
0.74911837
0.75148866
0.75400003
0.75513939
0.75614981
0.75891733
0.76284764
0.76738836
0.77221939
0.77511861
0.77523384
0.774854
0.77495451
0.77567008
0.7784675
0.78151535
0.78126562
0.77817746
0.7721662
0.76261252
0.75379879
0.74778637
0.74380007
0.74318454
0.74513094
0.74666224
0.74789737
0.7494413
0.7507346
0.75323581
0.75825943
0.76421306
0.76974483
0.7745997
0.77736367
0.7779174
0.77858162
0.7794382
0.77911045
0.77812004
0.77528714
0.76922988
0.76313253
0.75882149
0.75552956
0.75536926
0.75758462
0.75956437
0.76269364
0.76767598
0.77326532
0.78018081
0.78807079
0.79468925
0.80015989
0.80556186
0.81024829
0.81406826
0.81714566
0.81754455
0.81425772
0.80918325
0.80340926
0.79785686
0.79526966
0.79534724
0.79548394
0.79596525
0.79558231
0.79192256
0.78765413
0.78397938
0.78012361
0.77819262
0.77832552
0.77820704
0.77810614
0.7783117
0.77770775
0.7771219
0.77722261
0.77588734
0.77156643
0.76433464
0.75377625
0.74143783
0.73157611
0.72573836
0.72311666
0.72389176
0.72577688
0.72618372
0.72775693
0.73229815
0.73922924
0.75079297
0.76566585
0.77999695
0.79370788
0.8062454
0.81565694
0.8225923
0.82690389
0.82652946
0.82194143
0.81500279
0.80655049
0.79879683
0.79457434
0.79369521
0.7951344
0.79907831
0.80368081
0.80700384
0.81038848
0.81368588
0.81554288
0.81780357
0.82037747
0.82119765
0.82213958
0.82303747
0.82163374
0.81864406
0.81394265
0.80646576
0.79855113
0.79242216
0.78785207
0.78531165
0.78472139
0.78411896
0.78345176
0.78448135
0.78700547
0.7904679
0.7954143
0.80018098
0.80315591
0.80613854
0.80909798
0.81015088
0.81021601
0.80837167
0.8025833
0.79607372
0.79045287
0.78482073
0.78039055
0.77612828
0.76929258
0.76104935
0.7533691
0.74683377
0.74340479
0.74405469
0.74670359
0.75010753
0.75455833
0.75913862
0.76375029
0.77011382
0.77746691
0.78401061
0.79048349
0.79616486
0.79975449
0.80358267
0.8077272
0.80940135
0.80923327
0.80603593
0.79801312
0.7883609
0.77989895
0.77320734
0.7701562
0.77051912
0.77126898
0.77148291
0.77142796
0.77024339
0.76848945
0.76775879
0.76757577
0.76776733
0.77010931
0.77440678
0.77948305
0.78596252
0.79201948
0.79447394
0.79399844
0.79049467
0.78295708
0.77519875
0.76916144
0.76439544
0.76293922
0.76459008
0.76658464
0.76881891
0.77115329
0.7721578
0.77291529
0.77504755
0.77797466
0.78165643
0.78654553
0.7907177
0.79248243
0.79239942
0.78974886
0.78401654
0.77794893
0.77265439
0.7677835
0.76585989
0.76685998
0.76807553
0.77065342
0.7739257
0.77581714
0.77812405
0.78152589
0.78461491
0.78825251
0.79259618
0.79602715
0.79906389
0.80265844
0.80559899
0.80725018
0.8077705
0.80567746
0.80065804
0.79532386
0.79098073
0.78824632
0.78950991
0.79406659
0.79894101
0.80425332
0.80849659
0.8088536
0.8075662
0.80574315
0.80317248
0.80268844
0.80477162
0.80654813
0.80664166
0.80339228
0.79484752
0.78306417
0.77188854
0.76327075
0.75886708
0.75956141
0.7631489
0.76762234
0.77327553
0.77877612
0.78238563
0.78533375
0.78776204
0.78962936
0.79467372
0.80345436
0.8120559
0.8186982
0.81974545
0.81232892
0.80036386
0.78837579
0.77814366
0.77140767
0.76704026
0.76171602
0.7556767
0.75121942
0.74885389
0.74869363
0.75020023
0.75060495
0.74905299
0.74868478
0.75152492
0.75793549
0.76858388
0.78057041
0.78976999
0.79669821
0.80159236
0.80330131
0.80416431
0.80375618
0.79968402
0.79355148
0.78668618
0.77914791
0.77347591
0.7708943
0.76978263
0.76993246
0.77140823
0.7726768
0.77373751
0.77587863
0.77833073
0.78034066
0.78282223
0.78491339
0.78555549
0.78638354
0.7870094
0.78537877
0.78243024
0.77762093
0.769335
0.76101964
0.7547321
0.75026391
0.74954699
0.75190323
0.75398705
0.75539383
0.75625254
0.75589349
0.75622316
0.75929684
0.76437794
0.77074835
0.77794891
0.78341754
0.78539701
0.78484282
0.78177045
0.7763514
0.77134997
0.76732904
0.7631918
0.7607866
0.7600742
0.75914633
0.76020213
0.76329497
0.76632227
0.7702897
0.7748912
0.77816837
0.78119802
0.7849131
0.78835113
0.7920153
0.79620243
0.79889119
0.79901623
0.79692305
0.79179053
0.78385116
0.77560231
0.76769546
0.75995673
0.75424164
0.75020471
0.74619037
0.74390461
0.74326048
0.74217534
0.74269677
0.74508369
0.74800753
0.75347892
0.76171865
0.77010392
0.77779706
0.78361142
0.78560408
0.78506375
0.78426192
0.78306525
0.78112436
0.77818784
0.77250943
0.76420933
0.75663903
0.75144114
0.74858104
0.74884371
0.75021784
0.74998308
0.7500359
0.75121989
0.75211745
0.75460146
0.75817352
0.76097388
0.76524438
0.77207631
0.77951751
0.78645056
0.79054737
0.78862023
0.78154829
0.77255778
0.76343094
0.75577853
0.75052876
0.74577407
0.74036511
0.73617768
0.73384597
0.73312475
0.73532215
0.73889627
0.74099915
0.74318703
0.74634148
0.74981021
0.75659646
0.76653711
0.77636226
0.78544608
0.79229126
0.79460138
0.79375745
0.79127921
0.78666803
0.78072707
0.77438988
0.76725643
0.76088253
0.75818958
0.75935777
0.7632702
0.76934337
0.77501454
0.77846346
0.78201959
0.78659882
0.79102019
0.79647303
0.80215259
0.80602417
0.81103557
0.81784124
0.8234108
0.82615234
0.82330946
0.81273864
0.79829103
0.78531524
0.77615025
0.7715684
0.76954477
0.76561847
0.75865824
0.75159485
0.74683663
0.74604898
0.75028892
0.75691233
0.76289841
0.76935102
0.77683749
0.78470219
0.79463143
0.8054101
0.81357339
0.8204073
0.82601517
0.82887509
0.83037227
0.83004867
0.82549654
0.81759854
0.80767726
0.7958391
0.78436056
0.77551784
0.76898478
0.76491433
0.76397299
0.76440403
0.7646211
0.76517473
0.76511924
0.76359445
0.76309693
0.76467843
0.76800998
0.77530764
0.7856048
0.79458556
0.80147848
0.80445649
0.80175789
0.79671435
0.79196633
0.78735475
0.78383448
0.78093939
0.77674005
0.77267351
0.77151161
0.77373815
0.77938332
0.78769738
0.7951265
0.79928192
0.80156731
0.80296984
0.80426973
0.80797343
0.81324001
0.81695522
0.81929045
0.81933839
0.81518571
0.80956967
0.803431
0.79573169
0.78849343
0.78240832
0.77634048
0.77185082
0.7699299
0.76929535
0.7700535
0.77213238
0.77338923
0.77324897
0.77313465
0.7733745
0.77493951
0.78023879
0.78860799
0.79761482
0.80665638
0.81341703
0.81530344
0.81414012
0.81058185
0.80340106
0.79524573
0.78670518
0.7769126
0.76885287
0.76416035
0.76180319
0.76236499
0.76512231
0.76739468
0.76916746
0.77157657
0.77405033
0.77680505
0.78076137
0.78470334
0.78791202
0.79185849
0.7959849
0.79865334
0.80016823
0.79880082
0.79227883
0.78307861
0.77317462
0.76306426
0.75678895
0.75499093
0.7549791
0.75670833
0.75902849
0.75984393
0.76085365
0.76376842
0.76805932
0.77421396
0.78224175
0.79008753
0.7972115
0.80469825
0.81193302
0.81812761
0.82337244
0.82542035
0.82205441
0.81477851
0.80491577
0.7938502
0.78610718
0.78323046
0.78310085
0.78600444
0.78957916
0.79016124
0.78885505
0.78692677
0.78449113
0.78402162
0.78639495
0.78915655
0.79085609
0.79060208
0.78661638
0.77944026
0.77154112
0.7634951
0.75552732
0.74888751
0.74242996000000006
0.73458324
0.72679852
0.71909543
0.71047342
0.70322668
0.69752808
0.69151195
0.68785864
0.68775141
0.69090046
0.70005946
0.7153755
0.73336221
0.75199006
0.76891628
0.78135906
0.79026757
0.79788884
0.80412949
0.80860349
0.81083012
0.80865649
0.80180751
0.79346693
0.78561502
0.77906355
0.77551639000000006
0.77369924
0.77125535
0.76986617
0.77014437
0.77066709
0.77303944
0.77615748
0.77709426
0.77693244
0.77662638
0.77577945
0.77612527
0.77828257
0.78036354
0.78188438
0.78283883
0.78160925
0.77779244
0.77238493
0.76493644
0.75573303
0.74716263
0.7394648
0.73185707
0.7257857
0.72062894
0.714738
0.7104007
0.70816107
0.7063044
0.70710491
0.71076464
0.71575431
0.72396282
0.73556341
0.74787341
0.7598487
0.76979911
0.77505147
0.77631852
0.77584347
0.77421677
0.77245632
0.7718063
0.77135557
0.77096081
0.77282587
0.77711749
0.78265806
0.7898878
0.79704017
0.80172566
0.80600632
0.81072652
0.81441303
0.81885971
0.82340314
0.82562919
0.82687569
0.82749704
0.82547369
0.82063216
0.81254097
0.80013694
0.7858347
0.77351988
0.76481334
0.76053725
0.76049116
0.76155711
0.76137127
0.7607267
0.75982001
0.75886225
0.7601861
0.76352087
0.76690855
0.77168909
0.77760286
0.7824814
0.78811972
0.79408136
0.79796915
0.80111041
0.80407749
0.80590305
0.80823311
0.81149948
0.81317116
0.81205124
0.80755424
0.79842543
0.7862666
0.77482137
0.76553589
0.75877938
0.75526437
0.75288258
0.74934548
0.74622652
0.74413809
0.74247114
0.74354328
0.74713359
0.75058472
0.75565213
0.76247838
0.76936253
0.77768506
0.78710441
0.79498893
0.80131596
0.80589864
0.80706252
0.80546484
0.80244949
0.79774892
0.79249051
0.7889725
0.78733129
0.78760982
0.79116388
0.79687008
0.80286519
0.80999541
0.81736911
0.82306326
0.82879397
0.83455202
0.83824712
0.84185013
0.84529656
0.84656473
0.84696774
0.84671176
0.84418363
0.84024539
0.83515602
0.82721932
0.81684789
0.80554574
0.79394384
0.78434916
0.77961603
0.77915192
0.78093077
0.78375063
0.78504268
0.78359715
0.78257199
0.7837606
0.78670266
0.79253393
0.79929452
0.80311382
0.80566548
0.80805038
0.80994339
0.81376979
0.8191657
0.82259379
0.8229972
0.81953298
0.81074546
0.79853517
0.78591614
0.77403028
0.76461381
0.75932847
0.75660673
0.7544788
0.75283614
0.75027138
0.74598535
0.74277001
0.74181628
0.74264734
0.74725991
0.75482118
0.76192877
0.76955289
0.77755622
0.78490313
0.79410005
0.8054128
0.81555676
0.82261427
0.82441706
0.81890623
0.80857508
0.79781786
0.78878908
0.78283809
0.78014587
0.77805546
0.77507036
0.77300576
0.77263061
0.77386451
0.77794885
0.78312799
0.78625645
0.78839907
0.7898808
0.78950968
0.78998317
0.79152101
0.79206056
0.79269991
0.79332515
0.79181865
0.78846867
0.78324081
0.77478644
0.76452464
0.75494448
0.74672111
0.7410323
0.73904054
0.73887097
0.7385541
0.73839503
0.73766847
0.73623303
0.73726713
0.74178091
0.74849042
0.75836106
0.76970892
0.7787716
0.78661163
0.79321491
0.79731485
0.8010161
0.80469809
0.80627227
0.8060322
0.80394307
0.79853158
0.79099208
0.78364353
0.77730463
0.77376685
0.77504691
0.77966516
0.78508913
0.79043133
0.79376977
0.79426478
0.79510697
0.79767375
0.80088456
0.80562773
0.81048763
0.81266626
0.81435263
0.81618637
0.81632802
0.81508502
0.8113598
0.80346176
0.7942083
0.78716773
0.78355514
0.7844962
0.78932259
0.79524126
0.80086838
0.8053906
0.80830792
0.81146511
0.81707239
0.8244778
0.83132607
0.8352707
0.83486971
0.83273244
0.83424967
0.83947886
0.84152123
0.83288588
0.81068266
0.78372854
0.76963532
0.77686357
0.79438293
0.7989199
0.77283838
0.72500546
0.69228442
0.70935631
0.77302418
