0.80206838
0.81384486
0.85526338
0.89749361
0.91805538
0.91308567
0.89479902
0.87977438
0.87961429
0.89378107
0.91181908
0.92066862
0.9151795
0.89838317
0.87800211
0.86102402
0.85118985
0.84716054
0.84479636
0.84229549
0.84163701
0.84673432
0.85979085
0.88234778
0.91279532
0.94741923
0.98167825
1.0134951
1.041267
1.0626714
1.0755089
1.0789721
1.0730362
1.057525
1.0370414
1.0161094
0.9982952
0.98462441
0.97729768
0.97479711
0.97322134
0.96905433
0.96140568
0.9499939
0.93488721
0.91957388
0.90727914
0.89928024
0.89313076
0.88876919
0.88362914
0.87504922
0.8616921
0.84627496
0.83133765
0.8185795
0.81046665
0.80901321
0.81444703
0.82507544
0.84202391
0.86541077
0.89429082
0.92588797
0.95924229
0.99087727
1.0163149
1.0328286
1.0407826
1.0410461
1.0343894
1.024785
1.0155621
1.0082953
1.001363
0.99630302
0.99194443
0.98623895
0.97736688
0.96684873
0.95563071
0.94408391
0.93422015
0.92805761
0.92531661
0.92260479
0.91883263
0.9119825
0.90043192
0.88318187
0.86386973
0.84526308000000006
0.82893861
0.8159559
0.80748784
0.80275918
0.79962967
0.79855842
0.80048887
0.80606383
0.81402898
0.82597895
0.840995
0.85713166
0.87254238
0.88815657
0.90377902
0.91803285
0.93098705
0.9430263
0.95343759
0.96013352
0.96484437
0.96847454
0.97115573
0.97164593
0.9714351
0.97008269
0.96647908
0.96071243
0.95457161
0.94851027
0.94111679
0.93265324
0.92287526
0.91121632
0.89620625
0.88071244
0.86590219
0.85173493
0.83711185
0.82231304
0.80654733
0.78919298
0.77273918
0.76170308
0.75998631
0.76845364
0.78848591
0.81763287
0.85043313
0.87938235
0.90133065
0.9138982
0.91658117
0.91180287
0.9045747
0.89796591
0.89166139
0.88587626
0.87954676
0.87110471
0.85830222
0.84468515
0.83263387
0.82338276
0.81656832
0.81274118
0.81010701
0.80593105
0.80008956
0.79411031
0.78876385
0.7826103
0.77664723
0.7709006
0.76599488
0.7636219
0.76994515
0.78939241
0.82311743
0.86886487
0.9217738
0.97369261
1.0156127
1.0435145
1.0573446
1.0599063
1.0538326
1.0453794
1.0374621
1.0304256
1.0230843
1.0162799
1.0096616
1.0021164
0.99436125
0.98782338
0.98261424
0.97667553
0.97088432
0.9651818
0.95908643
0.95134816
0.94402098
0.93744861
0.93057167
0.92229637
0.91269271
0.90086464
0.88522193
0.86733571
0.84965729
0.83449384
0.82226393
0.81619484
0.81698891
0.82391299
0.83546716
0.85184327
0.87157377
0.89163688
0.91038018
0.92692134
0.94015532
0.9484276
0.95459353
0.96074079
0.96780196
0.97459555
0.98221901
0.98921377
0.99314689
0.99304444
0.99048685
0.98633865
0.9799474
0.97280502
0.96575856
0.95874032
0.94988539
0.94191587
0.93570563
0.93101745
0.92654388
0.92248404
0.91699406
0.90722206
0.89282103
0.8756157
0.85786302
0.84097167
0.82905072
0.8241509
0.82610453
0.83232754
0.84229011
0.8539588
0.86511267
0.87522119
0.8860889
0.89869594
0.91219496
0.92734311
0.94377776
0.95979049
0.97161675
0.98032825
0.98594773
0.98864147
0.98883709
0.9893611
0.99081027
0.99163894
0.99134679
0.99010969
0.98755484
0.98224136
0.9765514
0.97166755
0.96730984
0.96111228
0.95329645
0.94243101
0.92702503
0.90765404
0.88771326
0.86994786
0.85534447
0.84594419
0.84232431
0.84358956
0.84708219
0.85425165
0.86545018
0.88051644
0.89857088
0.9199576
0.94262497
0.962719
0.97822205
0.98892004
0.9948962
0.995404
0.99375141
0.99216207
0.99161135
0.99110708
0.99233696
0.99437511
0.99477237
0.99186866
0.98642234
0.97910297
0.97019589
0.96292698
0.95951101
0.95953621
0.95849269
0.95475434
0.94516961
0.92804963
0.90444464
0.87995702
0.85906015
0.84347273
0.83379722
0.8293611
0.82851573
0.82976967
0.83687642
0.85372913
0.88229627
0.92010645
0.96410201
1.0071717
1.0414474
1.0625748
1.0718818
1.0726678
1.067817
1.0617991
1.0567239
1.0519833
1.0441629
1.0346333
1.0238347
1.0123092
1.0004881
0.99068174
0.98276689
0.97476637
0.96628822
0.95801176
0.94998867
0.94060069
0.93119928
0.92150136
0.91016237
0.89503915
0.87820764
0.86156597
0.84758138
0.84006207
0.84368396
0.85999379
0.88630079
0.91932802
0.95406914
0.98505545
1.0067512
1.0202464
1.0271446
1.0293856
1.0283449
1.0267655
1.024434
1.0191534
1.0108258
1.0010595
0.99134482
0.98171829
0.97533346
0.9730343
0.97362463
0.9739249
0.97405947
0.9728695
0.9691344
0.96321841
0.95744577
0.95260404
0.94726951
0.94164156
0.93527555
0.92718789
0.91524907
0.90226821
0.88991555
0.87941644
0.87153269
0.8687951
0.87197984
0.88052186
0.89508286
0.91642111
0.94336046
0.97172899
0.99931428
1.0223805
1.0373587
1.0416631
1.0383695
1.0304931
1.0205296
1.0109857
1.0045234
1.0009109
0.99738135000000006
0.99348627
0.98893829
0.98329945
0.97469429
0.96574298
0.95723594
0.94929584
0.94181532
0.93679922
0.9342739
0.93249464
0.93071082
0.92846773
0.92448391
0.91650603
0.90615299
0.89477533
0.88353621
0.87262688
0.86444216
0.85880389
0.85384776
0.84829189
0.84314946
0.83999321
0.8406624
0.84979097
0.87035327
0.90154561
0.93696043
0.97170645
0.99850965
1.0117816
1.0100444
0.9985487
0.98339127
0.96910334
0.95921613
0.95438766
0.9515539
0.9452211
0.93451586
0.9198506
0.90307975
0.88588864
0.87225153
0.86250738
0.85418945
0.84464107
0.83311113
0.81954521
0.80480457
0.7932134
0.78830468
0.7908177
0.79705623
0.80493038
0.81054043
0.81145028
0.80836344
0.80702316
0.81243582
0.8263251
0.84820438
0.87495765
0.90095884
0.91966538
0.93075021
0.93591229
0.93775848
0.93739932
0.93786507
0.93862223
0.93739834
0.93312329
0.9273921
0.92099514
0.91264257
0.90225009
0.88852527
0.8695651
0.84306793
0.81306015
0.78363125
0.75873368
0.74096353
0.73298649
0.73376865
0.73977564
0.74883552
0.76060355
0.77554893
0.79396621
0.81916983
0.8526445
0.89343649
0.93759177
0.98247794
1.0234628
1.0556789
1.0764875
1.0868476
1.0883387
1.0820047
1.0713917
1.0594582
1.0478215
1.035545
1.0253073
1.0172899
1.0103079
1.0024299
0.9940941
0.98477011
0.97368013
0.96251038
0.95388728
0.94866226
0.94442325
0.94028759
0.93371955
0.92221125
0.90402876
0.88237196
0.86024046
0.83975129
0.82247777
0.81016631
0.80301443
0.80023808
0.80392792
0.81636053
0.83823998
0.86613321
0.89836455
0.9298713
0.95499547
0.96975788
0.9757589
0.97551168
0.97142822
0.96735192
0.96629853
0.9682829
0.97009227
0.97165812
0.97211748
0.97063854
0.96602463
0.9609123
0.95608007
0.95099085
0.94540981
0.94029093
0.93503252
0.92743002
0.91774874
0.90628721
0.8930737
0.87690062
0.86132693
0.8487739
0.841497
0.84154421
0.85246165
0.8749767
0.90673
0.94468228
0.98494146
1.0222632
1.0505332
1.0683132
1.0754913
1.0734302
1.0638544
1.0521969
1.0414945
1.0323682
1.0246365
1.0187454
1.0134763
1.0063426
0.99802076
0.98955949
0.98142864
0.97189453
0.96312184
0.95515766
0.94751787
0.93986659
0.93441136
0.93149077
0.92940621
0.92709215
0.92368989
0.91774921
0.90734232
0.89490508
0.88272366
0.87241594
0.86384303
0.85850908
0.85560588
0.8535354
0.8523061
0.85454177
0.862523
0.8767838
0.89900747
0.9284646
0.96158692
0.99155006
1.0160329
1.0319572
1.0377256
1.0338818
1.0249909
1.0143604
1.0032683
0.99316191
0.9846812
0.97674604
0.96685463
0.95640798
0.94638303
0.93727888
0.92825547
0.9206778
0.91351182
0.90458345
0.89274196
0.87883658
0.86309428
0.84476803
0.82572653
0.8081028
0.79410219
0.7849061
0.78545149
0.79781193
0.82116936
0.85180359
0.88602049
0.91812943
0.94239709
0.95702097
0.96356209
0.96430892
0.95983064
0.95322658
0.94523455
0.93504213
0.92073799
0.90470814
0.88821253
0.87177309
0.85633566
0.8438006
0.83411719
0.82546599
0.81870633
0.8148256
0.81421595
0.81508776
0.81913535
0.82543338
0.83189093
0.83620635
0.83885665
0.83962361
0.83788144
0.83487447
0.83252131
0.83159302
0.83110925
0.83300833
0.83885769
0.85026946
0.86810884
0.8955705
0.9323643
0.97435373
1.0154459
1.0501186
1.0726883
1.078986
1.0713711
1.055303
1.0367444
1.0185687
1.0053694
0.99705681
0.99109447
0.98445684
0.97758013
0.97067046
0.96332086
0.95634322
0.95058606
0.94521902
0.93741587
0.92786641
0.9171197
0.90565399
0.89293622
0.88130802
0.87099893
0.8609852
0.85108957
0.84359
0.84071913
0.84395438
0.85676628
0.88100519
0.91528289
0.95356015
0.99174583
1.0238585
1.0450666
1.0535144
1.052918
1.0474414
1.0399979
1.0337314
1.0303501
1.0289094
1.0262247
1.0232886
1.0207798
1.0189756
1.0166513
1.0154908
1.0149395
1.0135493
1.0111565
1.0098135
1.0100642
1.0099225
1.0088854
1.0059525
1.0001286
0.98998785
0.97998862
0.97325488
0.97113207
0.97235627
0.97574142
0.97738812
0.97273733
0.96092115
0.94476335
0.92840032
0.9148493
0.90910977
0.91275921
0.92415049
0.93887966
0.95548966
0.97136869
0.98419879
0.99381474
1.002614
1.0118051
1.0204946
1.0297354
1.0397142
1.0494525
1.0558705
1.0607037
1.0640498
1.0655834
1.0648629
1.063888
1.0627545
1.0599983
1.0557642
1.0510758
1.0462048
1.0398665
1.034116
1.0294717
1.0251157
1.0186563
1.010749
1.0006177
0.98733443
0.97165155
0.95644499
0.94364551
0.93365657
0.92866986
0.93002259
0.93785186
0.94996628
0.96777021
0.99008168
1.0140443
1.0357376
1.0535916
1.0651106
1.0679617
1.0633416
1.0546792
1.0449048
1.0345738
1.0263894
1.0203886
1.0149489
1.0073605
0.99906155
0.99045693
0.9814506
0.9726615
0.96564483
0.9597261
0.95198919
0.94187303
0.92878222
0.91200054
0.88979594
0.86568714
0.84215359
0.82177834
0.80736424
0.80363198
0.81251595
0.8328331
0.86286358
0.89980886
0.93896096
0.97400071
1.0026211
1.0228131
1.0333937
1.0335614
1.0269344
1.0159954
1.0023771
0.98823913
0.9766943
0.96862308
0.96248386
0.95864642
0.95679081
0.9557573
0.95272343
0.94974361
0.94752734
0.94650852
0.94678407
0.94989857
0.95428969
0.95573648
0.95121571
0.9396482
0.92176168
0.89981373
0.88124937
0.8719992
0.87416036
0.88422656
0.89795039
0.90839351
0.90987993
0.90179351
0.88960136
0.88005257
0.87754195
0.88529259
0.90199869
0.92269952
0.94011403
0.95294003
0.96052723
0.96360911
0.96345562
0.96313125
0.96297531
0.96127815
0.95790971
0.95395325
0.95001022
0.94499055
0.94070715
0.93727956
0.93374205
0.92821933
0.92263832
0.91789184
0.91429804
0.91270062
0.91467908
0.91945501
0.92376572
0.92652233
0.92713007
0.92556401
0.92113504
0.91796041
0.91783581
0.92027923
0.92268946
0.92393019
0.92179303
0.91462497
0.90462867
0.8964125
0.89354074000000006
0.89597413
0.90428701
0.9159093
0.92705853
0.93412395
0.93896415
0.94343019
0.94868234
0.95524662
0.96297856
0.96863068
0.9671574
0.95748815
0.94126365
0.92249342
0.90521779
0.89726006
0.90220542
0.91928606
0.94393669
0.97167838
0.99650224
1.0131926
1.0210932
1.022997
1.0223091
1.0206902
1.0212889
1.024172
1.027269
1.0272088
1.0244683
1.019049
1.0108741
1.0008489
0.99131631
0.98282783
0.97387708
0.96531062
0.9580889
0.95262852
0.94714743
0.94374384
0.94190327
0.93978272
0.93513049
0.92870441
0.92078899
0.91157376
0.90355248
0.89964047
0.90039811
0.90275444
0.90535268
0.90542944
0.90058859
0.88938404
0.87548802
0.86171383
0.84932387
0.83895062
0.83167247
0.82747452
0.82632859
0.83228202
0.84941524
0.87934628
0.91839911
0.96337471
1.0069978
1.0419421
1.063863
1.0749379
1.0786659
1.0777855
1.0750875
1.0716741
1.0658672
1.0540817
1.0377742
1.0194008
1.0019125
0.98678997
0.97741256
0.97337816
0.97176958
0.96992605
0.96751176
0.96396879
0.95797873
0.95090815
0.94380435
0.9365934
0.92692734
0.9165165
0.90541076
0.89333981
0.88020334
0.86852875
0.85976031
0.85432383
0.85390225
0.86036819
0.87388025
0.89195905
0.91440073
0.93959953
0.96532087
0.98866189
1.010554
1.0302971
1.0461467
1.0570983
1.0638538
1.0663238
1.0637838
1.0589524
1.0544741
1.0516412
1.0486557
1.0469047
1.0453225
1.0425262
1.0378119
1.0334488
1.0298457
1.0249885
1.0171433
1.0048207
0.98662445
0.96178381
0.93525908
0.91221482
0.89637691
0.88801483
0.88759785
0.89209997
0.89760764
0.90238517
0.90797502
0.91568007
0.92472106
0.93481802
0.94392809
0.9490835
0.94683302
0.94021992
0.93243827
0.92661298
0.92463608
0.92864268
0.93691044
0.94515811
0.95099578
0.95387254
0.95356322
0.94902125
0.94312725
0.93745426
0.93255296
0.92768723
0.92555913
0.92668401
0.92987283
0.93375143
0.93768559
0.93926163
0.93488087
0.92446042
0.90916041
0.89089853
0.87085028
0.85438346
0.844551
0.8425237
0.84765363
0.85990486
0.87649835
0.89285514
0.90627871
0.91599992
0.92205996
0.92441745
0.92719045
0.93312569
0.94288756
0.95422546
0.96677413
0.97807344
0.98546715
0.98853096
0.98994484
0.9918033
0.99419723
0.99836348
1.0038961
1.0087634
1.0089752
1.0053669
0.99778351
0.98604044
0.97003395
0.95213606
0.93342325
0.91416679
0.89665363
0.88395645
0.877629
0.87635268
0.88049845
0.88833004
0.89714493
0.90381997
0.9095383
0.9150564
0.92071548
0.92723122
0.93604497
0.94649116
0.95583001
0.96365532
0.96981819
0.97412537
0.97501644
0.97533058
0.97588442
0.97640264
0.97598009
0.97578575
0.97536879
0.97320937
0.9696915
0.9660218
0.96235177
0.9568425
0.95088374
0.94472638
0.93831252
0.93173314
0.92634788
0.92200727
0.91847158
0.91690696
0.91868472
0.92346439
0.92903845
0.93350174
0.93445462
0.93129462
0.92617235
0.92496401
0.93066514
0.94160149
0.95194469
0.95523025
0.94796041
0.93403831
0.9249812
0.93122206
0.95334838
0.97866208
0.98866552
0.96844547
0.92023479
0.86746787
0.84553997
0.87817617
0.95891095
1.0469938
