0.64013621
0.65451097
0.6651611
0.65322828
0.6282281
0.61073417
0.61248912
0.62712843
0.64038833
0.64805703
0.65783048
0.67944662
0.7170389
0.76387094
0.80698298
0.8395552
0.86100459
0.8732221
0.88069903
0.88542149
0.88594487
0.88223793
0.8730542
0.85535962
0.82949373
0.79739205
0.7618993
0.72877872
0.69959702
0.67289236
0.64945056
0.62950832
0.61447804
0.60760904
0.60669624
0.60561791
0.60174408
0.59775236
0.6045965
0.63786353
0.70247064
0.78669214
0.86851773
0.92306836
0.93806097
0.92282937
0.89688765
0.87889201
0.87819944
0.8875381
0.89257656
0.88458926
0.86164958
0.83025071
0.80085918
0.77646574
0.75373842
0.72905217
0.70015745
0.67130893
0.65123289
0.64235718
0.63965602
0.63576928
0.62639382
0.61896778
0.63082012
0.67476732
0.74985546
0.83913429
0.91516408
0.95685442
0.96006433
0.93453111
0.89897172
0.87082304
0.85579723
0.85200531
0.85462152
0.8563039
0.85370123
0.84728626
0.83659799
0.82321797
0.80965108
0.79549413
0.78116256
0.76719549
0.7510787
0.73169439
0.70963453
0.68472669
0.65979075
0.63926274
0.62472483
0.61672908
0.61332432
0.60947824
0.60524165
0.60874396
0.63308518
0.69222309
0.7864999
0.89351071
0.97869813
1.0110316
0.98085497
0.91112821
0.84164151
0.80249544
0.80145982
0.82213433
0.83863006
0.83906673
0.82860156
0.81875505
0.81918495
0.82790067
0.83317011
0.82809036
0.81338202
0.79376645
0.77642325
0.76261822
0.74623639
0.72323558
0.69398441
0.66316988
0.63992543
0.62817577
0.62234046
0.61586414
0.60704473
0.60383605
0.62439939
0.67874241
0.75509499
0.82683591
0.86391544
0.85373881
0.81568048
0.78362359
0.78095061
0.80989148
0.84941983
0.87317867
0.87334933
0.85786537
0.83825509
0.82262301
0.80646272
0.77995573
0.743676
0.70527598
0.673362
0.65500954
0.64745571
0.64209022
0.6359646
0.62954103
0.6251379
0.6284413
0.64076699
0.65897652
0.68186302
0.70624013
0.72750706
0.74590224
0.76088328
0.77115751
0.78002932
0.78843849
0.79549487
0.80366709
0.81194555
0.81594476
0.81412975
0.8032846
0.78132701
0.75304779
0.72232161
0.69129596
0.66441744
0.64347653
0.6293967
0.62496419
0.62767348
0.63061164
0.62957611
0.62416331
0.62135747
0.63437279
0.66915972
0.71859328
0.76715604
0.79676753
0.79944027
0.78457103
0.76767894
0.76064098
0.76797089
0.78304351
0.79697326
0.80779101
0.81547929
0.81993455
0.8209383
0.81377415
0.79492463
0.76738056
0.73510974
0.70237711
0.67384238
0.65008036
0.6307875
0.61731696
0.60844244
0.60184572
0.59644418
0.59076337
0.58672335
0.59089063
0.60842723
0.64149189
0.68765923
0.73620107
0.77467002
0.79649787
0.8013803
0.79777821
0.79814364
0.80720032
0.82125243
0.83213272
0.83062174
0.81569655
0.79505458
0.77537755
0.75938799
0.74454165
0.72353583
0.69403278
0.66186315
0.63496834
0.62018972000000006
0.61825837
0.6212242
0.62103658
0.61623574
0.61237573
0.6213783
0.65276378
0.70359629
0.76054043
0.80624098
0.82720391
0.82440236
0.81077224
0.79937092
0.79841388
0.80698672
0.81630316
0.82114096
0.82183945
0.81944448
0.81610517
0.81120796
0.80052126
0.78378086
0.76348904
0.74063981
0.71703547
0.69333597
0.66904149
0.64771438
0.63333649
0.62549573
0.62215915
0.62006237
0.61741593
0.61994651
0.63595139999999994
0.66888623
0.71706506
0.77110762
0.81709363
0.84790273
0.86292629
0.8651031
0.86230378
0.85943833
0.85522372
0.84914064
0.83990695
0.82570264
0.80998627
0.79547622
0.78089858
0.76610415
0.74869001
0.72519988
0.69835312
0.67246265
0.65056368
0.63679478
0.63082539
0.6280599
0.62679312
0.62643305
0.62773423
0.63656817
0.65745909
0.6904234
0.7341407
0.78122765
0.81976934
0.84355826
0.85059016
0.84397488
0.83562334
0.83401659
0.83907279
0.84820925
0.85348197
0.84700169
0.83101523
0.80982801
0.78603573
0.7635107
0.74073957
0.71389278
0.68560271
0.65952872
0.63866771
0.62708662
0.62313538
0.6213166
0.61988625
0.61861595
0.61969312
0.62972674
0.65171914
0.68327222
0.72048826
0.75524531
0.77950868
0.79301124
0.798524
0.80075607
0.80708767
0.81797957
0.82784898
0.83285755
0.82956788
0.81872946
0.80774955
0.79993252
0.79226955
0.78033799
0.75790513
0.72392427
0.68700677
0.65620846
0.63639099
0.62794118
0.62448923
0.61959391
0.61333387
0.60815556
0.60744716
0.6153316
0.6320084
0.65637073
0.68904501
0.72701939
0.76443718
0.7961789
0.81592602
0.82162909
0.81899355
0.81433526
0.81302961
0.81836464
0.82607079
0.8291387
0.8232168
0.80518136
0.77686208
0.74493005
0.71406817
0.6875893
0.66805932
0.6547583
0.64738384
0.6466934
0.65024587
0.65502525
0.66023826
0.66670572
0.6797524
0.7064056
0.74662346
0.79330844
0.83582785
0.86266491
0.87047332
0.86562619
0.85588815
0.84793304
0.84396159
0.83879034
0.82795056
0.81127536
0.78972472
0.76715097
0.74668595
0.72592913
0.70276652
0.67795538
0.65420283
0.63816398
0.63442937
0.63902433
0.64422987
0.64426089
0.64025804
0.64479615
0.67278976
0.72765247
0.7990025
0.86611672
0.90834833
0.92125172
0.91651454
0.91001995
0.9145031
0.93065182
0.94744014
0.95605261
0.95386369
0.94227491
0.92743888
0.91233402
0.89302927
0.86616758
0.82978079
0.78408321
0.7360889
0.69415269
0.6630645
0.64572447
0.63955143
0.63729735
0.63573527
0.63639955
0.64446645
0.66930168
0.71474856
0.77315003
0.83262123
0.87982368
0.90535169
0.91337279
0.91369311
0.91363964
0.91900522
0.92720502
0.92920626
0.92136403
0.90286193
0.87450548
0.84224223
0.80848129
0.7714471
0.7336808
0.69875681
0.67099504
0.65751722
0.65819929
0.66433295
0.66827624
0.6663336
0.66371204
0.6770027
0.71924936
0.78874673
0.87136077
0.94259615
0.98067285
0.98402587
0.96566132
0.94348592
0.93448494
0.93967195
0.94593454
0.94168507
0.91910239
0.87892135
0.83422822
0.79575786
0.76614262
0.74462091
0.72443372
0.6998703
0.67440261
0.65288358
0.63784278
0.63057744
0.62716712
0.62359347
0.62302854
0.63067968
0.65082287
0.68630617
0.73255863
0.7806796
0.8246839
0.85887518
0.8798028
0.89049073
0.89367164
0.89263964
0.89405985
0.89945287
0.90586149
0.9106355
0.90753439
0.89150201
0.86420152
0.82814374
0.78724039
0.7480193
0.71297541
0.68223885
0.65732447
0.63763537
0.62268098
0.61382909
0.60943974
0.60695684
0.6066525
0.60970824
0.62034205
0.64530406
0.68616877
0.73859444
0.79456577
0.842231
0.87358275
0.88930294
0.89338534
0.89222536
0.89189005
0.89112875
0.88585305
0.87416524
0.85477323
0.83090038
0.80901778
0.79101674
0.77561469
0.7600808
0.73967443
0.71389347
0.68759343
0.66523076
0.65020507
0.64319319
0.64012304
0.63783624
0.63680144
0.63882739
0.6480165
0.66803869
0.69774268
0.73415864
0.77340634
0.80944293
0.83929674
0.86303544
0.87980646
0.8908767
0.89729625
0.89591844
0.88510628
0.86545778
0.83772048
0.80704502
0.77942938
0.75595529
0.73629092
0.71821678
0.69700144
0.67242983
0.64809978
0.62714253
0.61362327
0.60832226
0.60595687
0.6021221
0.59603822
0.59134577
0.59846427
0.62670348
0.67602385
0.73895836
0.80229658
0.8528284
0.88710583
0.90800871
0.91844777
0.92223098
0.92041702
0.91265717
0.90509247
0.90414525
0.90971604
0.91878289
0.92442074
0.92016478
0.90957685
0.89935546
0.89066042
0.8810455
0.86342628
0.83161589
0.79062869
0.75030901
0.71662889
0.69200985
0.67313716
0.65563611
0.64225833
0.63655047
0.63680567
0.63961923
0.64081712
0.64147705
0.65426087
0.69046388
0.74904209
0.81886524
0.87966681
0.91462286
0.92615466
0.92703241
0.92908643
0.94050735
0.95663205
0.96576763
0.96460266
0.95467601
0.9396182
0.92630711
0.91369471
0.89403993
0.86374367
0.82155561
0.77110473
0.72399448
0.68885734
0.66744249
0.65861798
0.6563302
0.65476563
0.65540674
0.66096386
0.67289583
0.69416282
0.72489746
0.7640773
0.81345489
0.86855353
0.91712303
0.94776936
0.95111903
0.92775652
0.89316506
0.86280866
0.84349202
0.83440745
0.82509338
0.80606678
0.77925377
0.75030559
0.72439892
0.70531924
0.68977038
0.6733142
0.65727338
0.64388
0.63530147
0.63375198
0.63704
0.642661
0.65308405
0.67207717
0.7035907
0.74976737
0.80402544
0.85418318
0.89042056
0.90697001
0.90705356
0.9025068
0.9016894
0.90613076
0.91211898
0.91080983
0.89756415
0.87644409
0.85216241
0.8274363
0.80237261
0.7726024
0.7367848
0.7003183
0.66893543
0.64664664
0.63417396
0.62679007
0.62041287
0.61488444
0.61040658
0.60874143
0.61362082
0.62799985
0.65583977
0.69911338
0.75047519
0.79658894
0.82474673
0.82800215
0.81330895
0.7971371
0.79121659
0.79814424
0.81112398
0.81797207
0.81376719
0.80245561
0.78846212
0.77430998
0.75804635
0.73439405
0.70423903
0.67493883
0.6533962
0.64376208
0.64411045
0.64693023
0.64787873
0.64796513
0.65017823
0.65927875
0.67752486
0.70172183
0.72881651
0.75676358
0.78264196
0.80637592
0.82785059
0.84364858
0.85247701
0.85407984
0.84778025
0.83714567
0.82581739
0.81329995
0.79900047
0.78067293
0.75526347
0.72556448
0.69683221
0.67280993
0.65736501
0.6501941
0.64671172
0.6449572
0.64476062
0.6467356
0.65525926
0.67339451
0.69980565
0.73356199
0.77124026
0.80612669
0.83497287
0.85569101
0.86644362
0.8706837
0.87056236
0.86359718
0.8493998
0.8274006
0.79809946
0.76873959
0.74406298
0.72184328
0.69954912
0.6743425
0.64741287
0.62825055
0.62232952
0.62427799
0.62476188
0.61615851
0.60248246
0.60380505
0.63801703
0.70427574
0.7837773
0.84694207
0.87279579
0.86751245
0.8527425
0.84732799
0.85974424
0.88091047
0.89559813
0.90035578
0.89817131
0.89169182
0.88280339
0.86616681
0.83612552
0.7974817
0.75740797
0.72029852
0.68947138
0.66343705
0.64105516
0.62711825
0.62340926
0.62538353
0.62773666
0.62683033
0.62763247
0.64569467
0.69206311
0.76286599
0.84106929
0.9010066
0.92398513
0.91234074
0.88153445
0.85047551
0.83418028
0.83286817
0.83703176
0.83926092
0.83422959
0.821547
0.80675292
0.79188018
0.77563068
0.75768993
0.73553326
0.70846182
0.68127523
0.6579068
0.64079516
0.63192836
0.6286102
0.62725655
0.6282925
0.63348377
0.6464507
0.67152712
0.70713996
0.74718145
0.78508977
0.8136656
0.83020825
0.83816013
0.84019422
0.83855085
0.83617228
0.8321802
0.82612149
0.82059606
0.81551038
0.8101841
0.80511961
0.79809676
0.78835701
0.77822253
0.76773648
0.75623111
0.74260992
0.72273515
0.69492758
0.66306983
0.63341021
0.61391583
0.60934718
0.61505327
0.62207094
0.62464764
0.62462809
0.63510077
0.67198818
0.73905289
0.82494689
0.90749848
0.96366086
0.98610421
0.98522881
0.97665288
0.97294495
0.97577239
0.97451206
0.9593758
0.92819132
0.88460379
0.83824596
0.79766768
0.76415564
0.73656854
0.71272292
0.68965829
0.66857476
0.65205582
0.6401447
0.63316875
0.63058861
0.63056018
0.63490475
0.64707853
0.66850039000000006
0.70087451
0.74381722
0.79326177
0.84719762
0.90281471
0.95257628
0.98999115
1.008974
1.0058586
0.98671851
0.96041194
0.93157004
0.90295507
0.87265797
0.83731159
0.80038085
0.76645598
0.73632898
0.71027071
0.68675824
0.66539206
0.6517979
0.64915441
0.65227285
0.65361524
0.64824242
0.64128065
0.65249741000000006
0.69981799
0.78179079
0.87828547
0.95610219
0.98686602
0.96846375
0.91952608
0.86438626
0.82377128
0.80085944
0.78452618
0.76672132
0.74347195
0.71568636
0.69148716
0.67418706
0.66049553
0.64888806
0.63751366
0.62644216
0.62133737
0.62351647
0.62812789
0.63312718
0.6405986
0.66033693
0.70966253
0.79496707
0.90123233
1.0001943
1.0607031
1.0675809
1.0348814
0.98991675
0.95448535
0.93792903
0.93160587
0.92195704
0.90651787
0.88754217
0.86602638
0.84110168
0.8067097
0.76017308
0.71064081
0.67021834
0.64640092
0.63998308
0.64216645000000006
0.64310418
0.64206754
0.64334732
0.65242962
0.67444429
0.70715447
0.7435344
0.77923371
0.80945979
0.83067243
0.84445184
0.85157693
0.85332227
0.85387603
0.85268324
0.84648844
0.83371715
0.81119793
0.77874869
0.74199022
0.70568669
0.6739628
0.65101175
0.63643249
0.62852113
0.62705235
0.62945272
0.6337857
0.64187572
0.65590537
0.67955792
0.71744504
0.76712939
0.81978668
0.86502181
0.8923239
0.89850733
0.89031387
0.87593491
0.86187355
0.85107049
0.8395728
0.82310675
0.80079584
0.77161974
0.73710924
0.70184029
0.67016768
0.64834881
0.64112529
0.64473007
0.65054303
0.65135814
0.64586386
0.64405047
0.66101284
0.70225617
0.7595765
0.81494982
0.84922968
0.85683101
0.84785684
0.83646094
0.83323691
0.83932939
0.84625559
0.84744433
0.84199125
0.83067697
0.81609972
0.79854645
0.77453913
0.74447891
0.71292497
0.68472669
0.66541399
0.65659678
0.65392836
0.65392087
0.65578329
0.66068415
0.67406443
0.70026562
0.73651197
0.77665977
0.81223285
0.83420197
0.84138832
0.83898421
0.83296382
0.83043846
0.83322197
0.8354406
0.83186055
0.81897349
0.79569808
0.76778147
0.7408258
0.71541521
0.69194205
0.6699029
0.64973331
0.63728133
0.6359438
0.64153113
0.64788982
0.65003062
0.65002624
0.6619778
0.69993654
0.76485115
0.84428789
0.91469461
0.95354843
0.95650655
0.93407236
0.90134841
0.87339253
0.85467937
0.84025476
0.82792282
0.81617249
0.80272012
0.78836782
0.7708217
0.74625662
0.71741241
0.68844557
0.66264662
0.64522559
0.63652668
0.63235058
0.63137827
0.63194986
0.63282144
0.63888795
0.65455375
0.68112761
0.72052632
0.76852465
0.81571357
0.85612889
0.88453463
0.89840718
0.90336733
0.90403762
0.90192672
0.89876348
0.89005539
0.86879435
0.83441201
0.78969738
0.74161463
0.70246608
0.67909826
0.67124105
0.67345065
0.67722085
0.67900952
0.68285033
0.6930506
0.70978196
0.72842249
0.74201393
0.7491267
0.75481702
0.76176153
0.76612909
0.76081919
0.7429728
0.72189674
0.71236426
0.71625159
0.7175066
0.69571253
0.6482643
0.60451935
0.60593217
0.66272147
