0.71056962
0.74621844
0.7830813
0.79200221
0.77496201
0.75421769
0.74981306
0.7646689
0.78524638
0.79695023
0.79792573
0.79599989
0.79862301
0.80745263
0.81631943
0.81726363
0.81008591
0.80010509
0.79191949
0.78871806
0.7891766
0.78909801
0.78737297
0.78568459
0.78541726
0.78773222
0.7929311
0.79867291
0.80360186
0.80728365
0.80827828
0.80674259
0.80488128
0.80280403
0.79973417
0.79695569
0.79418334
0.79063612
0.78919363
0.79054631
0.79227459
0.79506776
0.79769386
0.79828252
0.79965642
0.80383996
0.80973369
0.81669691
0.82247973
0.82332055
0.81905405
0.81241776
0.80513231
0.79881871
0.79515099
0.7928018
0.79020946
0.78904962
0.78963989
0.79082091
0.79384923
0.79748918
0.79862244
0.79909004
0.79942643
0.79844624
0.79783435
0.79757491
0.79565362
0.79297959
0.79083972
0.78885176
0.78799413
0.78952925
0.79246557
0.79631598
0.80202694
0.8083297
0.81337304
0.81768029
0.82028887
0.81986082
0.81905185
0.8186753
0.81691449
0.8154375
0.81355544
0.80911281
0.8040856
0.79993804
0.79626116
0.79447323
0.79503043
0.79617238
0.79783718
0.80091227
0.80453647
0.8082986
0.81284747
0.81665824
0.81809538
0.81831968
0.81710462
0.81343139
0.80960558
0.80608218
0.80130093
0.79777009
0.79598509
0.79458371
0.79521711
0.79805809
0.80123204
0.80506037
0.80932952
0.81190812
0.81234444
0.8109849
0.80661738
0.79927161
0.7912376
0.78302639
0.77464095
0.76844304
0.76451596
0.76140913
0.76094831
0.76266655
0.76344433
0.76444602
0.76537598
0.7649895
0.76607079
0.76965674
0.77324137
0.77544415
0.77471034
0.76925453
0.76092457
0.75284326
0.74482359
0.73537525
0.72438589
0.71267311
0.70510671
0.71118772
0.73594473
0.77631655
0.8249447
0.86912304
0.89694115
0.90779885
0.90622195
0.89818573
0.89130671
0.88789708
0.88500383
0.88122123
0.8763283
0.87005635
0.86421554
0.8603543
0.85667126
0.85110167
0.84340565
0.83271464
0.81931672
0.8067532
0.79664122
0.78856157
0.78412475
0.78228179
0.77984877
0.77809839
0.77702694
0.77518185
0.77408913
0.77394492
0.77295384
0.77173589
0.77098535
0.76959313
0.76796265
0.76691235
0.76537825
0.76350432
0.76325773
0.76439818
0.76600676
0.76912449
0.77262879
0.77464242
0.77715564
0.78035119
0.78210736
0.78410772
0.78571241
0.78478943
0.78324851
0.78222201
0.78086663
0.78034561
0.78113764
0.78169577
0.78220269
0.7836977
0.78521756
0.78609436
0.78698267
0.78684498
0.78497671
0.78368805
0.78362068
0.78383100000000006
0.78578131
0.78843675
0.7886018
0.78762045
0.78574112
0.78213287
0.7793773
0.77853662
0.7780795
0.77836083
0.77959171
0.78065218
0.78249297
0.78668381
0.79209321
0.79717178
0.80140703
0.80289107
0.80077809
0.7979326
0.79576056
0.79380161
0.79359046
0.79393995
0.79170356
0.78875306
0.78603144
0.78312155
0.78244008
0.78424901
0.78603525
0.7874943
0.7886655
0.78863165
0.78861947
0.79033501
0.79279929
0.79484266
0.79657627
0.79686744
0.79542773
0.79508455
0.79652327
0.79810957
0.80024864
0.80123269
0.79825362
0.79418407
0.79098142
0.78861629
0.78911858
0.79186645
0.79365136
0.79410301
0.79371505
0.792136
0.79086799
0.79151148
0.79284362
0.79353687
0.79358204
0.79150948
0.7864351
0.78075552
0.77552846
0.77066572
0.76891577
0.77049529
0.77288637
0.77719336000000006
0.78227422
0.78528093
0.7871549
0.78847883
0.78873467
0.79009881
0.7938608
0.79805769
0.80102282
0.80147571
0.7973545
0.78923319
0.7808427
0.77418438
0.7697497
0.76877428
0.76965212
0.76990608
0.77128003
0.77433591
0.77742508
0.78214175
0.78749384
0.79089284
0.79374458
0.79680058
0.7987089
0.79982253
0.79989333
0.79727421
0.79298264
0.78962946
0.78778175
0.78748497
0.78904743
0.7904084
0.78991484
0.78950677
0.7900144
0.79092762
0.79401322
0.79823189
0.80019933
0.80098619
0.80029519
0.79655021
0.7916495
0.78646772
0.78017423
0.77455091
0.77125396
0.76980396
0.77065099
0.77426281
0.77885827
0.78335017
0.78848016
0.79342493
0.79725365
0.80128675
0.80473107
0.80553615
0.80497519
0.80279538
0.79722859
0.79106633
0.78543799
0.77971108
0.77618726
0.77541763
0.77545256
0.77639586
0.77816524
0.77922042
0.7800615
0.78203196
0.78443224
0.78679309
0.78963871
0.79142052
0.79061862
0.78866034
0.78570945
0.7811092
0.77745636
0.77521777
0.77236707
0.7708233
0.77056345
0.76983068
0.77033072
0.77241805
0.77403575
0.77532821
0.77641873
0.77615178
0.77570449
0.77716014
0.77997803
0.783023
0.78576833
0.7857189
0.7810905
0.77405934
0.76605926
0.75762565
0.75215913
0.75063779
0.75154216
0.75707471
0.76680951
0.7776454
0.78911034
0.79980414
0.80766085
0.81446436
0.82236814
0.83091057
0.83956375
0.84725802
0.85122986
0.85075027
0.84810862
0.8442153
0.83906312
0.83410755
0.82886163
0.82255354
0.81841067
0.81755055
0.81758754
0.81845504
0.81784597
0.8132726
0.80772596
0.80414287
0.80256314
0.80296895
0.8032759
0.79980851
0.79258562
0.78475293
0.77842472
0.77504904
0.77535317
0.77666893
0.77626518
0.7752504
0.7741991
0.77286542
0.77352673
0.77552048
0.77569503
0.7754377
0.77468166
0.77199486
0.76931736
0.76700792
0.76329507
0.75911421
0.75561633
0.75248661
0.75114486
0.75328093
0.7578255
0.76354643
0.77030558
0.77619433
0.77977654
0.78287709
0.78583711
0.78765675
0.79007663
0.79248679
0.79218269
0.79097966
0.7892195
0.78569334
0.78248742
0.78040728
0.77818428
0.77684324
0.77707358
0.77748678
0.7781198
0.7798435
0.7820198
0.78494802
0.79029963
0.79707118
0.80296485
0.80757391
0.80911149
0.8059626
0.80127069
0.79719022
0.79346189
0.7926692
0.79422264
0.79516005
0.79609105
0.79729972
0.79785966
0.79937101
0.80279622
0.80663115
0.81049597
0.81451679
0.81701313
0.81720338
0.81617742
0.81344375
0.80855294
0.80375184
0.7995137
0.79505151
0.7926778
0.79259965
0.7926498
0.79447174
0.79750914
0.7993512
0.80104757
0.80279141
0.80317178
0.80335373
0.80410232
0.80397546
0.8028394
0.80117408
0.79778186
0.79262788
0.78782788
0.78393072
0.7811492
0.78165421
0.78490476
0.78846429
0.79294321
0.79739285
0.79950357
0.80179318
0.80486616
0.80708057
0.80951176
0.81164436
0.81119334
0.80891517
0.80594019
0.80176321
0.79734696
0.79410484
0.79141121
0.78931094
0.78934479
0.79080025
0.79226464
0.79453271
0.79683536
0.79799006
0.8005861
0.80511823
0.80910749
0.81315255
0.81556674
0.81370705
0.80967547
0.80557279
0.80168978
0.79980986
0.80028416
0.80087015
0.80098729
0.80128125
0.800994
0.80018114
0.8002807
0.80072631
0.80079399
0.80215625
0.80429833
0.80505468
0.80512601
0.80350968
0.79798697
0.79153185
0.78581455
0.78059355
0.77810627
0.77842852
0.7791028
0.78006262
0.78142712
0.78200722
0.78257413
0.78457861
0.78734005
0.79045993
0.79453809
0.7978046
0.79814476
0.79626063
0.79184683
0.78449283
0.77774118
0.77318802
0.76959829
0.76890044
0.77038286
0.77156632
0.77369763
0.77722133
0.7807181
0.78474349
0.78912737
0.79185359
0.79288661
0.79323892
0.79223161
0.7897148
0.78685602
0.78301153
0.77770437
0.7734248
0.77091155
0.76924331
0.77019019
0.77311013
0.77504499
0.77763458
0.78086938
0.78296157
0.7855631
0.78911846
0.79198509
0.79476557
0.79739477
0.79727325
0.79309955
0.7848891
0.77216567
0.75677124
0.74323769
0.7340499
0.7300302
0.73248368
0.73945359
0.74755516
0.75731187
0.76842322
0.7792106
0.79194878
0.8063113
0.81963306
0.8324002
0.8443493
0.85393338
0.86228576
0.87015137
0.87591687
0.87898583
0.87929496
0.87539960000000006
0.86746498
0.85818651
0.84896171
0.8406979
0.83556633
0.83237586
0.82773647
0.82149708
0.81287526
0.80088373
0.78982575
0.78197434
0.77653028
0.77417273
0.77365558
0.7723097
0.77091468
0.77092616
0.77181018
0.77351135
0.77566445
0.77605578
0.77418386
0.77224431
0.77091378
0.77001316
0.77064392
0.77134655
0.76998333
0.7687547
0.76854832
0.76802538
0.76922644
0.77122762
0.77129313
0.77076465
0.77049025
0.76969744
0.76971468
0.77093828
0.77159069
0.7716608
0.77208548
0.77207922
0.77140686
0.77115552
0.77052623
0.76871278
0.7676308
0.76741671
0.7667879
0.76730651
0.76851753
0.76807456
0.76798469
0.76851901
0.76815187
0.76831754
0.76908213
0.76862512
0.76766514
0.76691931
0.76535819
0.76341448
0.7620506
0.76026611
0.75774095
0.75586546
0.75433364
0.75269142
0.75290927
0.75506584
0.75795901
0.76330598
0.77064386
0.77714135
0.78372522
0.78941056
0.79180713
0.79227391
0.79154965
0.78880019
0.78550868
0.78269366
0.77930511
0.77572888
0.77310085
0.77091735
0.76943772
0.77030381
0.7729791
0.77624858
0.78083739
0.78552133
0.7881517
0.79003705
0.79108341
0.78952463
0.78759223
0.78553949
0.78183484
0.7781161
0.77506548
0.77169936
0.76937703
0.76900497
0.7691973
0.76966925
0.77066439
0.77077762
0.76969217
0.76894289
0.76817251
0.76653704
0.76533932
0.76406633
0.76139205
0.75947167
0.75853502
0.75635318
0.75435025
0.7521059
0.74807219
0.7447092
0.74355238
0.74360386
0.74518269
0.74767142
0.74882829
0.7490109
0.75025069
0.75290511
0.75725995
0.76401534
0.77130428
0.77708193
0.782188
0.78600838
0.78681188
0.78603418
0.78363873
0.77833007
0.77367983
0.7713793
0.77047793
0.77203023
0.77521251
0.77752545
0.77965642
0.78270457
0.78574943
0.78860554
0.79120302
0.79192622
0.7907489
0.78994743
0.78980222
0.78928018
0.78870977
0.78662663
0.78152558
0.77647622
0.77328043
0.77092396
0.771125
0.77295178
0.77407421
0.77647062
0.78153738
0.7880635
0.79566923
0.80253366
0.80516586
0.80324115
0.79904682
0.79397421
0.7895664
0.78749393
0.78627447
0.78382122
0.7810617
0.77799965
0.77405941
0.7718585
0.7717179
0.77148991
0.77292518
0.77589585
0.77874043
0.78310939
0.78930477
0.7953933
0.80140995
0.80690552
0.80972457
0.80973502
0.80809635
0.80461821
0.79996542
0.7962412
0.7933205
0.79043895
0.78900069
0.7885059
0.78741601
0.78747976
0.78853101
0.78831817
0.78861297
0.78930507
0.78872292
0.7884845
0.78879592
0.78755597
0.78480972
0.78070443
0.77441242
0.76756645
0.76275583
0.76002379
0.75886694
0.75950663
0.76047593
0.76109383
0.76395582
0.76979721
0.77714901
0.78607149
0.79381362
0.79609667
0.79428317
0.78953217
0.78223382
0.77597962
0.77219549
0.76915258
0.7669937
0.76582287
0.76428534
0.7631197
0.76400067
0.76622482
0.76913417
0.77346217
0.77802156
0.78159755
0.78572156
0.78983246
0.79163188
0.79164879
0.78861388
0.78000516
0.76856677
0.75628409
0.7439487
0.73520364
0.73164981
0.73203148
0.73674189
0.74578377
0.75757707
0.7723058
0.79058846
0.81065056
0.83079226
0.850507
0.86770891000000006
0.88073918
0.89078547
0.89733556
0.89857936
0.89569496
0.88857197
0.87624195
0.86267109
0.85016249
0.83849778
0.82918141
0.82136405
0.81212745
0.80166837
0.79101923
0.78012955
0.77049022
0.76360171
0.75846036
0.75434657
0.75199609
0.75046385
0.74863895
0.74772295
0.74725162999999994
0.74583115
0.74525267
0.74551715
0.74448488
0.7437982
0.74308826
0.74051501
0.73805529
0.73667151
0.7353789
0.73547089
0.73737848
0.73927561
0.74105213
0.74332315
0.74492329
0.74558393
0.74658168
0.74722161
0.7466362
0.7464395
0.74642579
0.74531868
0.74503403
0.74556252
0.74478396
0.74448362
0.74450152
0.74300217
0.74148784
0.74060329
0.73934431
0.73904621
0.7406518
0.74292917
0.74578301
0.7496474
0.75324991
0.7561583
0.7595793
0.76282152
0.76471661
0.76634988
0.76727751
0.7663938
0.76607167
0.76689998
0.76704893
0.76810332
0.76959878
0.76965284
0.77000777
0.77150732
0.77285753
0.77439894
0.77586003
0.77547656
0.77375631
0.77254818
0.77199991
0.77223836
0.77392598
0.77542139
0.77503945
0.7740203
0.77248145
0.76969109
0.7678098
0.76699153
0.76532362
0.76477264
0.76535896
0.76522806
0.76553236
0.76637313
0.76632431
0.7665372
0.76778333
0.76846129
0.76787887
0.76586031
0.76104312
0.75384059
0.74705691
0.74175545
0.73799246
0.73699863
0.73737424
0.73659904
0.73585078
0.73526385
0.73351906
0.73311705
0.73423359
0.73499865
0.7365591
0.73904155
0.74098251
0.74328022
0.74636203
0.74859535
0.74980581
0.7507357
0.75086193
0.75073022
0.75224032
0.75478588
0.75669603
0.75819852
0.7582047
0.75568164
0.75367496
0.75351043
0.75359804
0.75485363
0.75545968
0.75229689
0.74668754
0.74026036
0.73341723
0.72832565
0.72588361
0.72436678
0.72332885
0.72334757
0.72370111
0.72446926
0.72703251
0.73067707
0.73417854
0.7383942
0.74234703
0.74401286
0.74464348
0.74416856
0.74112111
0.7383581
0.736896
0.7356772
0.73618339
0.7382637
0.73972286
0.74082031
0.74192945
0.74195016
0.74148559
0.74184323
0.74244271
0.74318584
0.74524856
0.74773406
0.74926502
0.7506827
0.75117795
0.7491039
0.74638297
0.74349704
0.73898253
0.7354158
0.73359493
0.73254006
0.73424896
0.73901634
0.74427033
0.74909147
0.75259122
0.75312123
0.75194435
0.75184735
0.75332292
0.75610437
0.76025416
0.76369436
0.76473668
0.76506752
0.76493812
0.7630119
0.76068528
0.75784858
0.75347537
0.75178714
0.75522116
0.76296496
0.77509714
0.78894063
0.79997036
0.80751466
0.81260924
0.81551294
0.81774141
0.82057099
0.82273826
0.8235207
0.82409607
0.82401434
0.82232901
0.82019794
0.81712125
0.81206745
0.80779797
0.80536376
0.80320982
0.80283209
0.80342752
0.8028579
0.80292621
0.80470766
0.80698445
0.80981138
0.81214969
0.8111901
0.8066406
0.80019669
0.7925509
0.78500466
0.77977375
0.77682901
0.77579188
0.77615606
0.77644857
0.77684721
0.77985867
0.78547917
0.79068088
0.79267684
0.78856479
0.77997557
0.77442016
0.77605904
0.78110906
0.78129999000000006
0.76956318
0.74930173
0.73629051
0.74414057
0.76907477
0.79001469
0.78406888
0.74909198
0.71428082
0.72042362
0.78082727
0.85834394
