0.76038005
0.77018385
0.80691871
0.84235135
0.85611473
0.84651884
0.82738262
0.81569254
0.82303248
0.84828373
0.88086748
0.90872902
0.92719361
0.93883405
0.9493087
0.96344451
0.98222048
1.0023649
1.0183068
1.0282428
1.0329486
1.0343398
1.0333405
1.0308101
1.0263381
1.0189345
1.0093431
0.99993348
0.99254843
0.98624857
0.98052846
0.97408034
0.96568722
0.9554151
0.9460701
0.93888279
0.93241169
0.92549799
0.9163067
0.90294514
0.8836946
0.86283182
0.84418356
0.83034914
0.82194354
0.81901965
0.81866259
0.81660617
0.81196838
0.80590238
0.80023739
0.79524937
0.79403793
0.79635659
0.80017172
0.80353112
0.80698111
0.81047197
0.813239
0.81676648
0.8220198
0.82861318
0.83408314
0.84000055
0.8461075
0.85160178
0.85601863
0.86084762
0.86596679
0.86974526
0.87266033
0.87525943
0.87739967
0.87720343
0.87690653
0.87676716
0.87606571
0.87391047
0.87122234
0.86744874
0.86083785
0.85196717
0.84202271
0.8318105
0.82044125
0.81054589
0.80260858
0.79592389
0.78953696
0.78442486
0.78055469
0.7769761
0.77484903
0.77547861
0.7792244
0.78428361
0.79187999
0.80108336
0.81006366
0.81728878
0.82365013
0.82955389
0.83481009
0.84132769
0.85058434
0.86231047
0.87339088
0.8837558
0.89172422
0.89585549
0.89613964
0.89544622
0.89535996
0.89530278
0.89547959
0.89534984
0.89370667
0.88848274
0.88256213
0.87759564
0.87403555
0.87116541
0.8689775
0.86569299
0.8588654
0.84933546
0.83942649
0.8311969
0.82424724
0.82040355
0.81854751
0.81637226
0.81214444
0.80721381
0.80272735
0.79887424
0.79724937
0.79868587
0.80255383
0.80622894
0.81089704
0.81634276
0.82180166
0.82655506
0.83159712
0.83656874
0.8400251
0.84284881
0.84617025
0.85029539
0.85344178
0.85717201
0.8609699
0.86367076
0.86462765
0.86554863
0.86697467
0.86797565
0.86919528
0.87093208
0.87256501
0.8718597
0.87074624
0.86970754
0.86857444
0.86702249
0.86624585
0.86573666
0.86349083
0.85953703
0.85441942
0.84842909
0.84045465
0.83315463
0.82734307
0.82276099
0.81880199
0.8164672
0.8153762
0.81392957
0.8125971
0.81217123
0.81289005
0.81329016
0.81532801
0.81887181
0.82272057
0.82561881
0.82829166
0.83058425
0.83159689
0.83272884
0.83540231
0.8398689
0.84397523
0.84874195
0.85320748
0.85594632
0.85626923
0.85612222
0.85644697
0.85668977
0.85774703
0.85996858
0.8625256
0.86274041
0.86212984
0.86085015
0.85858812
0.85511327
0.85203285
0.84935729
0.84556399
0.84104901
0.83647457
0.83191056
0.82571924
0.81996648
0.81494096
0.81014766
0.80514395
0.80146129
0.7994116
0.79801875
0.79814414
0.80064699
0.80552256
0.81089622
0.81828714
0.82727377
0.83654596
0.8448314
0.85277343
0.85993096
0.86486149
0.86835911
0.87152064
0.87482697
0.87698998
0.88025702
0.88479883
0.88969387
0.89384317
0.8979913
0.90160043
0.90294781
0.90244983
0.90073158
0.89771935
0.89158227
0.884488
0.87709175
0.86955815
0.86221703
0.85723858
0.85496319
0.8536255
0.85260571
0.85099219
0.84725653
0.83879682
0.82784985
0.81613928
0.80541513
0.79745716
0.79509896
0.79847759
0.80496158
0.81282897
0.82036424
0.82599977
0.82785478
0.82895744
0.83108301
0.83486975
0.84002601
0.84702695
0.85443925
0.85975377
0.86332347
0.86651068
0.87041902
0.87410033
0.8797022
0.88655214
0.89260109
0.89594416
0.89733259
0.8969861
0.89441169
0.89134078
0.8893329
0.88856791
0.88670416
0.88488971
0.88238353
0.87788267
0.87052761
0.8619583
0.85283016
0.84261444
0.8326703
0.82435326
0.81804405
0.81208279
0.80826374
0.80651392
0.80592595
0.80564417
0.80680996
0.80950633
0.81281279
0.81781127
0.82550224
0.83574741
0.84614681
0.85737495
0.86811427
0.87654651
0.88162122
0.88493924
0.88747023
0.88920593
0.89190582
0.89672477
0.90329773
0.90890834
0.91434388
0.91871195
0.92083386
0.92021744
0.91872923
0.91698182
0.91403564
0.9105597
0.90694366
0.90267064
0.89552782
0.88739186
0.87861874
0.86891028
0.85794075
0.84722366
0.83694151
0.82604513
0.81556571
0.80680295
0.80023619
0.7942211
0.7904193
0.78847806
0.78724409
0.78580565
0.78550475
0.78652425
0.7876679
0.78948566
0.79243276
0.79630716
0.79944308
0.8041374
0.81071806
0.8182427
0.82529599
0.83212326
0.83800856
0.84185425
0.84550598
0.85103129
0.85895004
0.8666197
0.87402694
0.87911502
0.88018389
0.87750075
0.87472837
0.87428146
0.87593393
0.87945152
0.88330378
0.88537548
0.88337259
0.88063211
0.87960108
0.88105329
0.88356397
0.88553155
0.88355405
0.87448708
0.85991475
0.84412099
0.83142267
0.82290491
0.82054584
0.8222162
0.82420951
0.82382592
0.8222425
0.82085917
0.81995565
0.82063864
0.82279514
0.82503229
0.82479687
0.82437824
0.82513325
0.82743427
0.83056083
0.83440361
0.83713251
0.8364736
0.83380174
0.83191246
0.83297929
0.83612521
0.84255951
0.85035127
0.85669622
0.85991803
0.86180494
0.86352542
0.86455754
0.8654908
0.86632693
0.86645265
0.86435243
0.86356016
0.86592429
0.87133416
0.87766842
0.88314789
0.88438359
0.87811176
0.86566326
0.85097101
0.83816871
0.82853276
0.82487953
0.82588986
0.82818272
0.82870175
0.82797708
0.82700932
0.82649649
0.82901826
0.836287
0.84787173
0.86035727
0.87378602
0.88667157
0.89739103
0.9050389
0.91127394
0.91663855
0.92021517
0.92286599
0.92537167
0.92761803
0.92760987
0.92740774
0.9273831
0.92716028
0.9263203
0.92633635
0.92713527
0.92714309
0.92682797
0.92689805
0.92739029
0.92646583
0.92618195
0.9266173
0.92696586
0.92643125
0.92633135
0.92673414
0.92636219
0.92586151
0.92597801
0.92664523
0.92589197
0.92557937
0.92581599
0.92592169
0.92522568
0.92508496
0.92551343
0.92512397
0.92457419
0.92460916
0.92516314
0.92424445
0.92385604
0.92406351
0.92410618
0.92331273
0.9230955
0.92344678
0.92295461
0.92230875
0.92225862
0.92272433
0.92171519
0.9212332
0.9213355
0.9212679
0.92038169
0.92006468
0.92029436
0.91966783
0.9188914
0.91872918
0.91910908
0.91803262
0.91745967
0.91741261
0.91713748
0.91603345
0.91556782
0.91576295
0.91518169
0.91440994
0.91408209
0.9140977
0.91260857
0.9117668
0.9117354
0.91172119
0.91089071
0.91035394
0.9099764
0.90856236
0.90718002
0.90685881
0.90747047
0.90660671
0.90535044
0.90298612
0.89863787
0.89245702
0.88722852
0.88446749
0.88376886
0.885735
0.88996493
0.89473698
0.89670172
0.89710646
0.89617335
0.8939559
0.89080206
0.88887216
0.88849532
0.88818936
0.88825612
0.88889872
0.88944138
0.88733362
0.88413444
0.87977138
0.87377109
0.86617407
0.85935813
0.85426474
0.85005495
0.8473312
0.84610961
0.84518221
0.8415174
0.83658716
0.83088338
0.82501064
0.82013481
0.81916833
0.82258922
0.8281293
0.83442567
0.83993423
0.84320667
0.84265212
0.84195216
0.84358092
0.848615
0.85666961
0.86754091
0.87876658
0.88690012
0.89171409
0.89437469
0.89605488
0.8960453
0.89673856
0.89803867
0.89893979
0.89891
0.8998149
0.90214127
0.90440816
0.90626682
0.90698319
0.90545288
0.89992516
0.89379374
0.88927586
0.88724599
0.88709891
0.88858945
0.88924899
0.88561789
0.87756701
0.86678437
0.85531318
0.84339993
0.83418045
0.82777883
0.8226212
0.81698644
0.81160535
0.8068358
0.80254061
0.80076849
0.8031763
0.80965424
0.81720824
0.82591214
0.83409958
0.84017331
0.84378962
0.84735605
0.85193724
0.85655247
0.86131965
0.86597928
0.86995111
0.87190306
0.87519668
0.88115553
0.88899429
0.89628581
0.90165942
0.90304753
0.89921131
0.89339792
0.89004212
0.89160893
0.89570251
0.90069223
0.90181703
0.89508488
0.88021457
0.86261843
0.84803011
0.8394959
0.83841065
0.84258772
0.84731189
0.8470609
0.84282996
0.83689554
0.83216169
0.83070913
0.83411673
0.84037188
0.84521589
0.8470743
0.84634594
0.84456554
0.8424
0.84365712
0.84896923
0.85672104
0.86451964
0.87187531
0.87767674
0.88045557
0.88147837
0.88232394
0.88359167
0.88355755
0.88385783
0.88396183
0.88262603
0.87911476
0.87526778
0.87199275
0.86886932
0.86706979
0.86703137
0.86758095
0.86530121
0.86089097
0.85420554
0.84551784
0.83601784
0.82897325
0.82548335
0.82390332
0.82329644
0.82245532
0.8201031
0.81454324
0.80925152
0.80643651
0.80687511
0.8099121
0.8154098
0.82136403
0.82511508
0.827349
0.83010502
0.83503717
0.84124973
0.85011457
0.85991219
0.86785207
0.87205904
0.87399026
0.87499694
0.87553901
0.87750197
0.88169007
0.88711675
0.89060405
0.89301784
0.89414009
0.89371587
0.8919656
0.89100303
0.89125873
0.89143691
0.8918978
0.89299315
0.8943685
0.89395943
0.89342152
0.89257333
0.8903255
0.8855483
0.87918901
0.87129973
0.86118167
0.85055529
0.84151434
0.83519153
0.83026657
0.82827185
0.8283289
0.82858997
0.82755027
0.82621487
0.82490189
0.82298542
0.82179091
0.82244063
0.82497661
0.82741993
0.83133313
0.83630017
0.84099269
0.84413716
0.84657643
0.84818947
0.84804401
0.84764105
0.84860356
0.85141442
0.85409214
0.85788615
0.86190767
0.86468351
0.86540662
0.86590754
0.86699149
0.86796045
0.86962383
0.87220088
0.87462652
0.87392121
0.87137605
0.86716284
0.86136712
0.85447328
0.84881489
0.84483832
0.8409417
0.83699697
0.83311652
0.82934841
0.82484338
0.8229329
0.8249388
0.83038321
0.83747942
0.84537356
0.85193292
0.85474891
0.85479046
0.85423732
0.85475517
0.85554537
0.8582898
0.86206386
0.86519977
0.86689871
0.86921789
0.87333069
0.87862533
0.88529519
0.89245772
0.89806151
0.89885948
0.89672362
0.89302884
0.88899812
0.88558662
0.88466507
0.88557345
0.88557814
0.88395158
0.88067928
0.87578698
0.86808693
0.86045303
0.85386405
0.84819553
0.84296634
0.83936468
0.83699754
0.83396357
0.83035299
0.8267038
0.82328539
0.81898294
0.81657127
0.81668617
0.81852263
0.82068138
0.82344212
0.82612096
0.82752876
0.82920011
0.8329564
0.83933023
0.84603608
0.85354128
0.86017582
0.86410431
0.86485534
0.86514548
0.86681191
0.86981253
0.87488854
0.88158193
0.88804522
0.89093747
0.89193973
0.89206852
0.89216885
0.8929003
0.89604153
0.90088734
0.90459363
0.90618134
0.90529885
0.90164422
0.8938288
0.88483307
0.87601122
0.86775866
0.86008406
0.85453539
0.85091118
0.84736768
0.84391508
0.84089279
0.83825497
0.8345545
0.83228653
0.83222709
0.83419375
0.83768946
0.84368504
0.85147384
0.85886199
0.86566305
0.87207494
0.87804904
0.88224435
0.88716511
0.89319827
0.89932075
0.90399325
0.90740376
0.90886434
0.90735308
0.90483532
0.90371297
0.90512956
0.90727778
0.91099088
0.91466618
0.91629613
0.91502337
0.91296782
0.91119192
0.90885926
0.90607179
0.90223777
0.89610773
0.88565757
0.87398768
0.86327612
0.85473899
0.84847731
0.84509779
0.84298099
0.83928304
0.83408244
0.8287903
0.8247682
0.82138837
0.82088329
0.82269147
0.82497079
0.826162
0.82729204
0.82873333
0.82983966
0.83176638
0.83518844
0.83953239
0.84228228
0.84486751
0.84717705
0.84864037
0.84898017
0.84989608
0.85158083
0.85266663
0.85376253
0.85552266
0.85781919
0.85866012
0.86010165
0.86227577
0.86444544
0.86588234
0.86793616
0.87059485
0.87247495
0.87408901
0.87583098
0.87699987
0.87483343
0.87053409
0.8640907
0.85558656
0.84592989
0.83831645
0.83421805
0.83270645
0.8334617
0.83535027
0.83640508
0.83374422
0.82956091
0.82571693
0.82410578
0.82645999
0.83516424
0.84959228
0.86628924
0.88290065
0.89736292
0.90803716
0.91311493
0.91570434
0.91758748
0.91933354
0.92060087
0.92203057
0.92263234
0.92051417
0.91663315
0.91274579
0.90991178
0.90671964
0.90470943
0.90298452
0.89994275
0.89474746
0.88942925
0.88499482
0.88065988
0.87675483
0.87297291
0.86811397
0.85975337
0.85030632
0.84113526
0.8328079
0.8252406
0.81957892
0.81524273
0.81054988
0.8063868
0.80426762
0.80485573
0.80629806
0.80964302
0.81373004
0.81701593
0.81906621
0.82235366
0.82834183
0.83662952
0.84760819
0.86037328
0.87256844
0.88040398
0.8851249
0.88757683
0.88892152
0.89063602
0.89536376
0.90292848
0.9104009
0.91623436
0.91937107
0.9193089
0.9153251
0.91166178
0.91062989
0.91249347
0.91576394
0.91955875
0.92138705
0.91841434
0.91146291
0.9028937
0.89462563
0.88587403
0.87821961
0.87052257
0.86096365
0.84884874
0.83692144
0.82744125
0.82094111
0.81848143
0.81969829
0.82263447
0.82382373
0.82460937
0.8258008
0.82804383
0.83177536
0.83846009
0.84731989
0.85584314
0.8636554
0.87087171
0.87723978
0.88089648
0.88376456
0.88594204
0.88699754
0.88699459
0.88815858
0.89110525
0.89447863
0.89820978
0.90181868
0.90420513
0.90318608
0.90141128
0.9002152
0.90005606
0.90074232
0.90303612
0.90552524
0.90526786
0.90179697
0.89564538
0.88748792
0.87675024
0.86670936
0.85858438
0.85229562
0.84722818
0.84428136
0.84276194
0.8405548
0.83762764
0.83448125
0.83142713
0.82746644
0.82550887
0.82638555
0.82948987
0.83352197
0.83856144
0.84333904
0.84582146
0.84676163
0.84761486
0.84929528
0.8506581
0.8536637
0.85778157
0.86140343
0.86321019
0.8643342
0.8651507
0.86511223
0.86571427
0.86813482
0.87221298
0.87544603
0.87901208
0.88230242
0.88426748
0.88435384
0.88428817
0.884467
0.88372861
0.8825871
0.88140373
0.87964949
0.87504633
0.86935348
0.86289838
0.85556849
0.84745992
0.84050792
0.83509738
0.83001698
0.8257234
0.82274053
0.82104256
0.81908418
0.8189676
0.82074229
0.82324452
0.82505936
0.82674154
0.82819171
0.82895823
0.8311696
0.83685698
0.84625997
0.85635403
0.86659293
0.87447491
0.87818008
0.87806958
0.87635773
0.87501267
0.87557487
0.88011849
0.88834126
0.89739853
0.90260622
0.90132915
0.89170777
0.87540493
0.85817566
0.84687136
0.84407863
0.8464071
0.84749913
0.84068794
0.82462378
0.80559751
0.79608644
0.803575
0.82459608
0.84509653
0.84821196
0.82537758
0.78571756
0.75537091
0.76095795
0.81043711
0.88130739
0.92751037
