0.88810282
0.87952617
0.90880537
0.95299494
0.98643755
0.99675544
0.98687351
0.97014574
0.96006053
0.96464392
0.98161226
1.0017192
1.0150127
1.0184507
1.015018
1.0106394
1.0098584
1.0146068
1.0221134
1.0269039
1.0245198
1.0150058
1.0011565
0.98627508
0.97305075
0.96335812
0.95699586
0.95209072
0.94746027
0.94353901
0.94107171
0.93986628
0.94008159
0.94217508
0.9463474
0.95143337
0.95879834
0.96903602
0.98171784
0.99428597
1.0068403
1.0184909
1.028263
1.0340368
1.0378936
1.0409578
1.0440775
1.0457805
1.0480903
1.0506615
1.0526788
1.0520159
1.0506596
1.04918
1.047851
1.0457558
1.0447155
1.0443272
1.0432314
1.0394834
1.0341263
1.0269875
1.0175471
1.0055177
0.99300076
0.98075984
0.96876521
0.95734523
0.94831481
0.94195355
0.93723502
0.93368675
0.93201018
0.93206305
0.93302493
0.93564757
0.94142808
0.95042253
0.9606916
0.97143343
0.98204891
0.99150542
0.99817571
1.0036147
1.00965
1.0169443
1.0235203
1.0291472
1.0324467
1.0317605
1.0248886
1.0146657
1.0042049
0.99649697
0.99174945
0.99221332
0.99655551
1.0016202
1.0018253
0.99672113
0.98557032
0.96928439
0.94875993
0.92924565
0.91368808
0.90336109
0.89702509
0.89532289
0.89662107
0.89886159
0.90021101
0.90238771
0.90637756
0.9126929
0.92140708
0.93392422
0.94943589
0.96569298
0.98071262
0.9945745
1.0067473
1.0163352
1.023744
1.0308068
1.0380345
1.0444623
1.0501403
1.0557034
1.0606725
1.0633953
1.0642656
1.0642936
1.0638572
1.0621293
1.0604382
1.0597267
1.0597989
1.0585951
1.0563162
1.0524955
1.0463387
1.0360719
1.0234579
1.0097827
0.99617514
0.98213469
0.97004046
0.96045077
0.95316564
0.94598864
0.94033282
0.93614733000000006
0.93350067
0.93146493
0.93249462
0.9371074
0.94477278
0.95321743
0.96265075
0.97135078
0.97714157
0.9778667
0.9751311
0.96981398
0.9625836
0.95410733
0.94715242
0.9421824
0.93778964
0.93229654
0.92586853
0.91761364
0.90626243
0.89235241
0.8786152
0.86671718
0.8567231
0.84946815
0.84605655
0.84595916
0.84703004
0.84912987
0.85278927
0.85771604
0.86209598
0.86634487
0.87087926
0.87562746
0.87945626
0.88442613
0.89241633
0.90459872
0.91992471
0.93948086
0.96256941
0.98754578
1.0109911
1.0332742
1.0538966
1.0725266
1.0872217
1.1000741
1.1112888
1.1207896
1.127119
1.1324646
1.1372049
1.141074
1.1425083
1.14292
1.1421378
1.1396778
1.1348639
1.1300554
1.1261535
1.1229679
1.1195056
1.1164021
1.1126015
1.1062071
1.0960183
1.0833413
1.0689557
1.0530219
1.0364534
1.0212738
1.008035
0.99578843
0.98453035
0.97508022
0.96741216
0.96041595
0.95476004
0.95154805
0.9509807
0.9516959
0.95435002
0.95933485
0.96621268
0.97295479
0.9803716
0.98866569
0.99740607
1.0044068
1.0109058
1.0170936
1.0228497
1.0263653
1.0298843
1.0339581
1.0386068
1.041558
1.0447164
1.0477933
1.050332
1.0506264
1.0510376
1.0518565
1.0525379
1.0510248
1.0482533
1.0432891
1.0350105
1.022553
1.0086979
0.99512676
0.98281914
0.97222999
0.96527161
0.96165505
0.95976255
0.95830732
0.95800543
0.95874355
0.95978542
0.96135444
0.9648184
0.97017229
0.9760119
0.98202426
0.98863824
0.99533527
1.0004519
1.0042811
1.0076599
1.0107049
1.0122307
1.0133515
1.0149919
1.0171804
1.0182613
1.0192065
1.0203819
1.0216434
1.0213609
1.0211251
1.021373
1.0218806
1.0205065
1.0183903
1.0151193
1.0102025
1.0018768
0.99259422
0.9831865
0.97425064
0.96495173
0.95738693
0.95157527
0.94690897
0.94192726
0.93818462
0.93585681
0.93469084
0.93394573
0.93541055
0.93911814
0.94404197
0.94876876
0.95395808
0.95886096
0.96201607
0.96266954
0.96225464
0.96108083
0.95839292
0.95420485
0.94984835
0.9454136
0.9397689
0.93313691
0.92650921
0.91942516
0.909649
0.89678582
0.88147646
0.86456527
0.84663115
0.83134502
0.82196227
0.81939575
0.82073907
0.82419975
0.82718656
0.82798419
0.82582783
0.82568436
0.83255476
0.84971395
0.87548972
0.90799809
0.94145633
0.96969148
0.98705673
0.99547664
0.99840559
1.0005325
1.0043619
1.0134108
1.0267241
1.0411653
1.0525294
1.061009
1.0669336
1.0712799
1.0746278
1.0794691
1.0855841
1.0911289
1.0939815
1.0948599
1.093923
1.0911126
1.0869366
1.0835837
1.0815566
1.0798491
1.0778052
1.0759457
1.0735743
1.068787
1.0609186
1.0506121
1.0381309
1.0230821
1.0071349
0.9926278
0.98087097
0.97123418
0.96441302
0.96054845
0.95884246
0.95704225
0.95585055
0.95583447
0.95727813
0.95890954
0.96247689
0.96844789
0.97654234
0.98444878
0.99342441
1.0032058
1.0132779
1.0212389
1.0289643
1.0363437
1.0430105
1.0471817
1.0509886
1.0546835
1.0580556
1.0598238
1.0619593
1.0644725
1.0666017
1.0669218
1.0667428
1.0656125
1.0622864
1.0555868
1.0469441
1.0366533
1.0245489
1.0112346
0.9992075
0.98945211
0.98155426
0.97543489
0.97180937
0.97003404
0.96842255
0.96683256
0.96624567
0.96691213
0.96791434
0.9699105
0.97365732
0.97882141
0.98355919
0.98826859
0.9934133
0.99889393
1.0031613
1.0073503
1.0119114
1.0165701
1.0193427
1.0214518
1.023166
1.0244582
1.0237217
1.0230271
1.0228771
1.0233248
1.0223982
1.0217158
1.0205784
1.0177962
1.011013
1.0015129
0.98936453
0.97497056
0.95859186
0.943736
0.93201831
0.92378144
0.9180052
0.91538105
0.91482041
0.9148539
0.91469434
0.91634854
0.92065214
0.92714073
0.93489985
0.9440482
0.95307588
0.95967423
0.96306387
0.96456296
0.96462942
0.962325
0.95773683
0.95182412
0.94482191
0.93619618
0.9277752
0.92165496
0.91786792
0.91321578
0.90557628
0.89272771
0.87321797
0.84669898
0.81863791
0.79568664
0.78340304
0.78287443
0.79465786
0.81471827
0.83668846
0.85286002
0.86192899
0.86480181
0.86522376
0.86645182
0.87499786
0.89307712
0.91942785
0.94870527
0.97783768
1.0027291
1.0209565
1.0317444
1.0393907
1.0473302
1.0576112
1.0698917
1.0844514
1.0988202
1.1098297
1.1154155
1.117437
1.1176608
1.1172989
1.1171961
1.1187236
1.1208498
1.1211147
1.1183169
1.1136447
1.1081807
1.1023248
1.0973564
1.0946127
1.0935578
1.0918323
1.088495
1.0834462
1.0763575
1.0660112
1.0534279
1.0397756
1.0256959
1.0105714
0.9963012
0.98429612
0.97518642
0.96764178
0.96276149
0.96040436
0.9599648
0.95933711
0.96018845
0.96291928
0.96766964
0.97259606
0.97953331
0.9880065
0.99700331
1.0040305
1.0104297
1.0157856
1.0194188
1.0198515
1.0190621
1.0172975
1.0142803
1.0093322
1.0047235
1.0009472
0.9975057
0.99356287
0.99034509
0.98725506
0.98267334
0.97556754
0.96708737
0.95734093
0.94572296
0.93286985
0.92099382
0.91112388
0.90299919
0.89737235
0.895275
0.89604186
0.89723717
0.89799944
0.8981635
0.89751513
0.8955014
0.89448173
0.89688302
0.90385029
0.91402278
0.92722332
0.94182235
0.95559479
0.96566475
0.9732943
0.97981434
0.98660618
0.99309655
1.0012891
1.0107369
1.0201065
1.0262192
1.030532
1.0332872
1.0349174
1.0345303
1.034428
1.0347413
1.0349266
1.0334608
1.0317638
1.0293882
1.0249437
1.0163029
1.0041724
0.98875827
0.97103834
0.95318341
0.9397321
0.9326764
0.93072939
0.93026048
0.92769966
0.91870734
0.90043327
0.87426205
0.84574404
0.82042561
0.80160353
0.79121109
0.78945649
0.79434884
0.80309614
0.81615686
0.83558174
0.86225013
0.89355166
0.92629894
0.95517602
0.97415949
0.978112
0.96875638
0.95117004
0.93190413
0.91528252
0.90631859
0.90562851
0.91075749
0.91646998
0.92191963
0.92624974
0.92962394
0.93082187
0.932347
0.93406674
0.93513124
0.93349033
0.93113632
0.92896327
0.92771994
0.92699803
0.92865237
0.93232701
0.93681135
0.94056941
0.94481564
0.94982912
0.95554426
0.96181285
0.97013373
0.98035884
0.99107709
1.0008668
1.0100216
1.0180225
1.0237966
1.027372
1.0302317
1.0327019
1.0336634
1.0330185
1.0314484
1.0287934
1.0239636
1.0179012
1.0120167
1.0065109
0.9995687
0.9910687
0.98088938
0.96876217
0.95378716
0.93860234
0.92573254
0.91662897
0.90979233
0.90524626
0.90088275
0.89391957
0.88080585
0.86344093
0.84470229
0.8290043
0.81944315
0.82181599
0.83748316
0.86421454
0.89551394
0.92692758
0.95286143
0.96966621
0.97599509
0.97649792
0.97558888
0.9766096
0.98040334
0.98813126
0.9975912
1.0054456
1.0093006
1.0107894
1.0114685
1.0123919
1.0143544
1.0187747
1.0245906
1.0292516
1.0314756
1.0322286
1.031989
1.0301928
1.0271865
1.0236467
1.0188829
1.0111003
1.0009018
0.99016465
0.9803818
0.97150169
0.9648652
0.96090747
0.95871089
0.95578242
0.9524755
0.94950404
0.9477419
0.94677741
0.94885204
0.95471009
0.96387281
0.97341374
0.9835904
0.99338901
1.0020538
1.0076434
1.0128514
1.0186946
1.0256175
1.0319442
1.039006
1.0458734
1.0511753
1.0529574
1.0532296
1.052847
1.052236
1.05099
1.0509481
1.0516962
1.0516319
1.0490162
1.0447238
1.0385669
1.0298626
1.0186389
1.0069731
0.99570402
0.98466081
0.97445817
0.9668686
0.96213514
0.95889369
0.95668187
0.95577571
0.95568407
0.95516958
0.95523997
0.95756471
0.96281519
0.96974044
0.97853754
0.98875785
0.99909678
1.0070735
1.0134908
1.0191749
1.0246572
1.0287227
1.03293
1.0373535
1.0413688
1.042623
1.0427722
1.0423181
1.0416888
1.0393662
1.0378046
1.0371652
1.0370725
1.0355768
1.0344985
1.0338022
1.0329518
1.0302699
1.0272039
1.023383
1.01791
1.0095799
1.0002825
0.99065564
0.98077417
0.9706026
0.962135
0.95568774
0.95044737
0.94578386
0.94270941
0.94100725
0.93956629
0.93821848
0.93813209
0.9393732
0.94085507
0.94276291
0.94602563
0.95051959
0.9548501
0.95946347
0.96515999
0.97182183
0.97783802
0.98382566
0.99020155
0.99658355
1.0010541
1.0046186
1.0078762000000001
1.010972
1.0124199
1.0139745
1.0161789
1.0188453
1.0196452
1.0197934
1.0189464
1.0165836
1.0104935
1.0029716
0.99463691
0.98596162
0.97595036
0.96709785
0.95990722
0.9542328
0.94876732
0.94513874
0.94323477
0.94227584
0.94090772
0.94041226
0.94070554
0.94117806
0.94132832
0.94292648
0.94633111
0.95083555
0.9558142
0.96213163
0.96925352
0.97565948
0.98085647
0.98593
0.99103823
0.99528318
0.9990676
1.0035143
1.0085496
1.0126826
1.0161746
1.0196718
1.022993
1.0246211
1.0252873
1.0255313
1.0250651
1.0220933
1.0175199
1.0118285
1.0051988
0.99663491
0.98822333
0.98100739
0.97539359
0.96994918
0.9661119
0.96373293
0.96237545
0.96000358
0.9587064
0.9589693
0.96096495
0.96316003
0.96715874
0.97248822
0.97806552
0.9818319
0.98524261
0.98835134
0.99066678
0.99095998
0.99071076
0.98976174
0.98728314
0.98254197
0.97744363
0.9723829
0.96652216
0.95905302
0.95101584
0.94232927
0.93225644
0.92124584
0.91099348
0.90111681
0.88890428
0.87249619
0.85172794
0.8275077
0.80228258
0.78260752
0.77578678
0.78595725
0.81154389
0.84851918
0.88971374
0.92710382
0.95400508
0.97090295
0.98185798
0.9922222
1.0047373
1.022257
1.0433502
1.0641683
1.0792453
1.0886908
1.0936852
1.0967694
1.0985924
1.1025643999999999
1.1083378
1.1139834
1.1159612
1.1154058
1.1130129
1.1099854
1.1065469000000001
1.1053878
1.1063624
1.1077304
1.1067247
1.1035389
1.0974645
1.0877658
1.0741425
1.0589529
1.043427
1.0280235
1.0133743
1.0015942
0.99324471
0.98743582
0.9834847
0.98173313
0.98155518
0.98144434
0.98142713
0.98257238
0.98505849
0.98774091
0.99107349
0.99568105
1.0012199
1.0059454
1.0105388
1.0156424
1.0212027
1.0255767
1.0299158
1.0346093
1.0393079
1.0419023
1.0437775
1.045369
1.0468301
1.0465509
1.0467666
1.0478447
1.0494265
1.0487129
1.0470491
1.0437133
1.0379983
1.0281918
1.0170108
1.0055535
0.9944775
0.98315207
0.9738225
0.96659043
0.96071717
0.95487292
0.95045502
0.94737068
0.94481647
0.94191025
0.93995838
0.93896747
0.93830183
0.9379718
0.93982894
0.94434124
0.95062775
0.95818684
0.96732046
0.97693449
0.98488029
0.9907877
0.9956957
1.000124
1.0035624
1.0073009
1.0126466
1.0195028
1.0258757
1.0319017
1.0376728
1.0427747
1.0455069
1.047211
1.0486221
1.0495873
1.047845
1.0441519
1.0382236
1.0296642
1.0168694
1.0026163
0.98871222
0.97672535
0.96588365
0.95865927
0.95478671
0.9530474
0.95055667
0.94818372
0.94567137
0.94302853
0.93979716
0.93872276
0.94063722
0.94515574
0.95063198
0.95758415
0.96489158
0.97097055
0.97471046
0.97787591
0.98122113
0.98467462
0.98828644
0.99344648
0.99975992
1.0055121
1.0098897
1.0136876
1.0168738
1.0185359
1.0193085
1.0206558
1.0227696
1.0242279
1.0252456
1.0262646
1.0267478
1.0247508
1.0208252
1.015683
1.0095471
1.0013496
0.99292639
0.98569596
0.98043855
0.97607367
0.97430959
0.97552681
0.97928962
0.98308072
0.98776092
0.99283846
0.99772557
1.0002203
1.0023327
1.0043738
1.0063434
1.0066667
1.0071692
1.007854
1.0083564
1.0074954
1.007301
1.0081217
1.0095292
1.0103071
1.0117534
1.0135586
1.0148098
1.0147802
1.0152277
1.016446
1.0176077
1.0179536
1.0182407
1.0178327
1.0153122
1.0106335
1.0055689
1.0010533
0.99693284
0.99406616
0.99354002
0.9948682
0.9960046
0.99663467
0.99707152
0.99722629
0.99605796
0.99482991
0.99449698
0.99486771
0.99461251
0.99343363
0.99002428
0.98354136
0.97430499
0.96599018
0.96159781
0.96276564
0.96842297
0.97715334
0.98529369
0.99022966
0.99160164
0.99343023
0.99838427
1.006541
1.014148
1.0168424
1.0100724
0.99394781
0.97451817
0.96195094
0.96202115
0.97212098
0.98130015
0.97633808
0.94870256
0.90314427
0.85919358
0.84266919
0.86939324
0.93299266
1.0025437
1.0318799
