0.83003536
0.85505617
0.90870951
0.97033321
1.019341
1.0459582
1.0518954
1.0445974
1.0334205
1.0235639
1.0151618
1.0051452
0.99368168
0.98272033
0.97436336
0.96908441
0.96648427
0.96417311000000006
0.95875606
0.94918315
0.93659421
0.92216714
0.90449165
0.88296474
0.85650426
0.8253116
0.79175853
0.7624621
0.74466417
0.74340216
0.76039142
0.79404833
0.83923857
0.88781244
0.93468937
0.97588616
1.0093011
1.0338866
1.0527334
1.0672815
1.0771615
1.0818312
1.08209
1.0777568
1.0677751
1.0545886
1.0409907
1.0290908
1.018503
1.0120096
1.0089365
1.0066878
1.0020905
0.9951118
0.98577625
0.97455221
0.96424102
0.95738771
0.95308988
0.94594694
0.93234788
0.90882211
0.87499915
0.83438056
0.79703491
0.77184224
0.76357402
0.77203964
0.79328086
0.82017018
0.84571495
0.86899638
0.89272421
0.92032209
0.95137658
0.98581967
1.017995
1.040418
1.0475688
1.0408469
1.0241104
1.0020174
0.98053584
0.96406992
0.95334369
0.94562583
0.94124785
0.9396508
0.9397827
0.9394437
0.9397293
0.94014439
0.93984489
0.93927537
0.94017054
0.94150424
0.93868486
0.92824885
0.90734266
0.87569665
0.8359916
0.79843162
0.77241399
0.76407309
0.77414202
0.79993858
0.83424757
0.86872841
0.8993088
0.92640822
0.95206378
0.97645222
1.0011349
1.0239246
1.0402218
1.0447148
1.0383462
1.0236141
1.0046749
0.98711079
0.97650781
0.97382989
0.97507858
0.97685839
0.97603397
0.97114784
0.96180785
0.95382728
0.95071903
0.95253787
0.95534848000000006
0.95492397
0.94551772
0.92315282
0.89012839
0.85358866
0.82134041
0.79817547
0.78834795
0.79166279
0.80564986
0.82745495
0.85852974
0.89956978
0.94891657
1.0022829
1.0535562
1.0942329
1.1160979
1.1180702
1.104218
1.0815408
1.0555922
1.0346948
1.0218334
1.0163019
1.0154046
1.0184404
1.0229002
1.0248396
1.0221191
1.0143368
1.0019972
0.98605215
0.97225554
0.96452484
0.96304654
0.96292693
0.96004044
0.94877282
0.92595207
0.89404622
0.86100289
0.83425978
0.81714433
0.81071828
0.81241131
0.81840958
0.82560558
0.83823462
0.86114523
0.8974936
0.9460216
1.002316
1.0566447
1.0976873
1.1195288
1.1227052
1.1119281
1.0926919
1.0737456
1.0597197
1.0509077
1.0439491
1.0383546
1.0327774
1.0265201
1.0209216
1.0190999
1.0217799
1.0263759
1.031167
1.0334096
1.030116
1.0180507
1.0002533
0.97959002
0.95888464
0.9400894
0.92576807
0.91518111
0.90540289
0.89494784
0.88408269
0.87396925
0.86588645
0.86453766
0.8732092
0.89302298
0.92197455
0.95878729
0.99877244
1.0353056
1.0628599
1.0790087
1.082313
1.0723391
1.0537276
1.0320941
1.01213
0.99506374
0.98458857
0.9800784
0.97854113
0.97621617
0.97241702
0.96614911
0.95664256
0.94581061
0.93627818
0.92870746
0.92061082
0.91144536
0.89897201
0.88098642
0.85615862
0.82825592
0.8009031
0.7773053
0.76066195
0.75404407
0.7577929
0.769754
0.78940754
0.81583884
0.8473604
0.88021229
0.91439058
0.94801295
0.97867028
1.0041971
1.0254983
1.042112
1.0521666
1.0555278
1.0530465
1.0450998
1.0311213
1.0148679
0.99908385
0.9850151
0.97142772
0.9590645
0.94609798
0.92990389
0.9096259
0.88737491
0.86505659
0.84345899
0.82509312
0.81119449
0.80142277
0.79340163
0.78869234
0.78764793
0.79047456
0.79727596
0.80982667
0.82798657
0.84987009
0.8744396
0.90114386
0.92862624
0.95395744
0.97769672
0.99989042
1.0202013
1.0370859
1.052129
1.0642432
1.0703978
1.0681623
1.0579415
1.0408619
1.0187386
0.99755042
0.98254746
0.97549126
0.97227931
0.96986196
0.96223608
0.9446771
0.91638002
0.88334181
0.85241376
0.82848135
0.81456503
0.81029148
0.81143062
0.81167217
0.80967991
0.80630749
0.80428954
0.80627756
0.8169009
0.83756699
0.86698398
0.90306099
0.9440738
0.98624043
1.0235488
1.0526886
1.0718888
1.0816231
1.0833125
1.0847312
1.0904746
1.100577
1.110144
1.1141059
1.1063126
1.083524
1.0501392
1.0157588
0.98940367
0.97458044
0.97249149
0.97843242
0.98543815
0.98745191
0.98565243
0.98228963
0.97870489
0.97430375
0.96697448
0.95222818
0.92609096
0.89125507
0.85505401
0.82662586
0.81220194
0.81756855
0.84171777
0.87909529
0.92248661
0.96751102
1.0102753
1.0473724
1.0779357
1.1020049
1.118867
1.1264538
1.1273079
1.1234055
1.1159561
1.104403
1.0916341
1.0783964
1.0647103
1.05185
1.0427065
1.0378614
1.0348123
1.0322225
1.0280129
1.020013
1.0056825
0.98881741
0.97257694
0.95948757
0.95056879
0.94705989
0.94631779
0.94302074
0.93350793
0.91653175
0.89271094
0.86404264
0.83716767
0.81782817
0.80955883
0.81263726
0.82862142
0.85676264
0.89538206
0.94351631
1.0006425
1.0621093
1.1181498
1.1597423
1.1786024
1.170329
1.1356092
1.086966
1.0386485
1.0031255
0.98700439
0.99151007
1.0090055
1.0270116
1.0360514
1.0324676
1.017895
0.99693091
0.97868945
0.9683362
0.96520506
0.96281601000000006
0.95562453
0.93808105
0.90868048
0.87248427
0.83979359
0.81995301
0.81748077
0.83338997
0.86336244
0.90017642
0.93601232
0.96973187
1.0014366
1.0314067
1.0583073
1.0810383
1.0958106
1.0984165
1.089423
1.0736597
1.056932
1.0426316
1.0352219
1.0342112
1.0356641
1.0340022
1.0283418
1.0181907
1.003894
0.98708643
0.97001667
0.95234916
0.93144669
0.90695971
0.87901973
0.84847849
0.81592426
0.7861998
0.76190752
0.74394297
0.73195709
0.72695299
0.72871529
0.73683332
0.75320862
0.78048737
0.81923672
0.86592006
0.91753199
0.96829597
1.01171
1.0419823
1.0598373
1.0669977
1.0657307
1.0590216
1.0500509
1.0386274
1.0216083
0.99837599
0.96916916
0.93523509
0.8975122
0.86175471
0.83107419
0.80638249
0.78672169
0.77188878
0.75973941
0.74770515
0.73598319
0.72639932
0.72041325
0.71786741
0.72058266
0.72863353
0.74120779
0.75695598
0.7776504
0.80392458
0.83511594
0.86991338
0.90693319
0.94288457
0.97308044
0.99601808
1.0116325
1.0206695
1.0227062
1.0217409
1.0192471
1.0152068
1.008716
1.000888
0.99067785
0.97541273
0.954263
0.9278278
0.89681698
0.86147009
0.82635477
0.79506988
0.76957194
0.74916795
0.73490805
0.72558735
0.71924358
0.715079
0.71436725
0.71724554
0.72179491
0.72736005
0.73317913
0.73883537
0.74382695
0.75271398
0.76887388
0.79377969
0.82611262
0.86400688
0.90250958
0.93543859
0.95996173
0.97659337
0.98713587
0.99254524
0.99716041
1.0029777
1.0097961
1.0151783
1.020209
1.024302
1.0260824
1.0250518
1.0226031
1.0186874
1.011595
1.0021914
0.99155036
0.98032455
0.96738113
0.95556973
0.94582747
0.93791214999999994
0.93058845
0.92454568
0.91905732
0.91240529
0.90461113
0.89709792
0.89091316
0.88572196
0.88407032
0.88766743
0.89749226
0.91313603
0.93647129
0.96661438
1.0001473
1.0331462
1.0632779
1.0881429
1.1057273
1.1185846
1.1299511
1.1414965
1.1507218
1.1575081
1.158701
1.1512397
1.1342072
1.1120135
1.0891251
1.068537
1.0531878
1.0443583
1.0403356
1.0368332
1.0335212
1.0299474
1.0255903
1.0187542
1.0106531
1.0002966
0.98587709
0.96725409
0.94745158
0.92972221
0.91652024
0.91210104
0.91893706
0.93657202
0.96051563
0.9888557
1.0175318
1.0424715
1.0607461
1.0733657
1.0807424
1.0822031
1.0788281
1.0724061
1.0637462
1.0520624
1.0409382
1.032724
1.02836
1.0264938
1.0283768
1.0323889
1.0357356
1.0370418
1.0375581
1.0376851
1.036163
1.0337635
1.0303031
1.0245137
1.0134583
0.99956462
0.98423873
0.96877962
0.95421272
0.94334681
0.93646366
0.93192212
0.92942155
0.92967133
0.93311221
0.93926458
0.95096531
0.96966664
0.99522894
1.0251123
1.0584338
1.0909191
1.1163737
1.1299972
1.1310295
1.1206874
1.1018287
1.0820576
1.0682328
1.0632794
1.0635453
1.0663728
1.0659075
1.0575242
1.0404332
1.0204891
1.0037235
0.99357604
0.99161303
0.99614226
1.0020298
1.0025465
0.99669687
0.98508481
0.96928026
0.94979992
0.92922284
0.90725477
0.88276808
0.85687436
0.83431531
0.82022012
0.8183535
0.83273374
0.86386519
0.90835625
0.95884729
1.0111326
1.0595451
1.0989732
1.1258741
1.1408678
1.1445932
1.1378129
1.1242182
1.1084989
1.0934304
1.0784227
1.0650332
1.052866
1.0410405
1.0285568
1.0183332
1.0110616
1.005211
0.99858533
0.9898682
0.97759475
0.96118987
0.94439081
0.93069698
0.92073405
0.91008997
0.89580722
0.87360609
0.84244222
0.80654744
0.77606863
0.7595013
0.75963427
0.77400392
0.79581705
0.81699671
0.83215539
0.8454465
0.86453148
0.89602419
0.94009783
0.99279529
1.042456
1.075537
1.0839
1.0685142
1.0356811
0.99337709
0.95128527
0.91503021
0.88542048
0.85904624
0.83650224
0.81750715
0.80226785
0.79111282
0.7857077
0.78487177
0.78543517
0.78579451
0.78564904
0.78492839
0.78310936
0.78293023
0.78575549
0.7916143
0.79900801
0.80873329
0.82019132
0.83249029
0.84590491
0.86225776
0.88185673
0.90246291
0.92294407
0.94160341
0.95656932
0.96513543
0.97024326
0.97357261
0.975462
0.97459154
0.97106025
0.96288174
0.9476356
0.9264645
0.90303501
0.88055202
0.8596496
0.84238234
0.82807055
0.81456466
0.79918013
0.78333542
0.76815611
0.75439553
0.74286007
0.73455916
0.7286633
0.72315109
0.71873452
0.71710286
0.72033654
0.72925809
0.7473716
0.77534214
0.81174981
0.8537307
0.89959348
0.94595279
0.98830553
1.0242797
1.0532699
1.0748782
1.0878956
1.0951697
1.0986217
1.09909
1.0955637
1.0897795
1.0809345
1.0667343
1.0456183
1.0184049
0.98588807
0.9487733
0.91087327
0.87562178
0.84450415
0.81562407
0.78947355
0.76500974
0.74200351
0.72179769
0.70842375
0.7036508
0.70575566
0.71172607
0.71838766
0.72375827
0.72834994
0.73873428
0.76150259
0.79971849
0.84988173
0.90563477
0.95660559
0.99345681
1.0131267
1.0202992
1.0223035
1.02466
1.0317745
1.0427973
1.0526878
1.053984
1.0463151
1.0305005
1.008914
0.98399467
0.95933313
0.93491681
0.90845287
0.87964316
0.85021236
0.82223486
0.79676944
0.77698646
0.76362442
0.75537693
0.74930768
0.74517735
0.74206795
0.73913369
0.73670388
0.73672995
0.74019492
0.74654319
0.75674439
0.77120941
0.78934407
0.80853241
0.82992148
0.85330456
0.87806643
0.90341403
0.93066333
0.95875839
0.98442561
1.0056599
1.0215601
1.0312264
1.0331752
1.0303878
1.0244894
1.0151763
0.99952841
0.97736466
0.94728226
0.90895159
0.86545089
0.82361143
0.7893251
0.76521438
0.75304491
0.75144357
0.75657246
0.76284372
0.76972375
0.77698961
0.7851461
0.79471678
0.80760337
0.82362013
0.84102554
0.85944593
0.87962604
0.90185139
0.92463444
0.9487642
0.97330164
0.99602382
1.0135335
1.0264566
1.0348213
1.0385405
1.0386921
1.0380208
1.0373132
1.0348383
1.0311012
1.0265293
1.0213417
1.0143179
1.0091893
1.0071782
1.0075122
1.007509
1.005822
0.99925785
0.98426092
0.96056482
0.93100604
0.89922827
0.86772852
0.84139114
0.82287135
0.81258562
0.80867848
0.81186737
0.82155335
0.83664518
0.85682199
0.8829175
0.9138254
0.94602919
0.97780658
1.0074789
1.0336456
1.0541138
1.0722
1.0893143
1.1051759
1.1178026
1.126918
1.1305005
1.1262349
1.1154737
1.1021513
1.0896645
1.0785933
1.0713865
1.067581
1.065025
1.0605949
1.0555679
1.0501153
1.0434308
1.0348866
1.0249514
1.0127469
0.99658789
0.97832624
0.96049967
0.94485147
0.93041168
0.91903592
0.9106457
0.90531239
0.9042123
0.9114696
0.92922782
0.95623394
0.98988045
1.0260791
1.0595335
1.084831
1.1031355
1.1169167
1.1285647
1.137953
1.1466906
1.1524903
1.1514701
1.1417821
1.1255798
1.1053798
1.0827339
1.0615945
1.0446318
1.0326494
1.0235962
1.0197546
1.0206908
1.0242112
1.0267161
1.0265259
1.0205598
1.005855
0.98327487
0.95638067
0.92866785
0.90167276
0.87927842
0.86337643
0.85483811
0.85380958
0.86382208
0.88635917
0.92051038
0.96383236
1.0131381
1.0627659
1.105623
1.1388439
1.1614641
1.1736522
1.1744894
1.1685237
1.1581262
1.1448669
1.1301319
1.1179578
1.1098667
1.1047193
1.1018002
1.1001408
1.0973799
1.0899232
1.0789964
1.0659187
1.0519838
1.0373167
1.0249623
1.0150687
1.0057681
0.9952442
0.98302664
0.96780096
0.94794541
0.92523403
0.90220069
0.8814872
0.86454907
0.85654233
0.86068838
0.87876752
0.91076298
0.95614142
1.0097658
1.0625434
1.1062092
1.1348674
1.1458432
1.1399611
1.1259432
1.1122641
1.1041742
1.1011901
1.1016168
1.0995977
1.0897596
1.0718007
1.0513356
1.0349891
1.0267242
1.0284452
1.0358489
1.0397423
1.0288285
0.99933254
0.95179555
0.89263611
0.83240824
0.78393031
0.754708
0.74503497
0.75082293
0.76500915
0.77973491
0.78892143
0.79414108
0.79966339
0.81016246
0.82748897
0.85311832
0.88355043
0.91251884
0.93489634
0.94903786
0.95401886
0.94858947
0.93475104
0.91425849
0.88847918
0.85772681
0.82786659
0.80271516
0.78412811
0.77159566
0.76470738
0.76027565
0.75458459
0.74746641
0.74118461
0.73779044
0.73707008
0.74024584
0.7457982
0.75125134
0.75443909
0.75776957
0.7633284
0.77244617
0.78587324
0.80404136
0.82539184
0.84717377
0.86935794
0.89251797
0.91679959
0.94011592
0.96284936
0.98316618
0.9988501
1.0085359
1.0142699
1.0170703
1.0160833
1.0108895
1.0009563
0.98494886
0.96110481
0.93276176
0.90355564
0.87653585
0.85309842
0.83345454
0.81533402
0.79677812
0.77867298
0.76385394
0.75435272
0.74964128
0.74754629
0.74403425
0.73664319
0.72674151
0.72062989
0.72283435
0.73279429
0.74424456
0.74886228
0.74150339
0.72620396
0.71708735
0.72924983
0.7680218
0.82306498
0.87423246
0.90138281
0.89970553
0.88619717
0.89232075
0.94090207
1.0269334
1.1122376
