0.81091045
0.8291667
0.88487784
0.94856791
0.99481761
1.0152179
1.017538
1.0154309
1.0205234
1.0346356
1.0508385
1.0591603
1.0561429
1.0442626
1.0288369
1.0143348
1.0029868
0.99340572
0.98215142
0.96889662
0.9559455
0.94577364
0.93773378
0.93100384
0.92305924
0.91151329
0.89577563
0.87889001
0.86364392
0.84985302
0.835925
0.82031292
0.80290457
0.78482957
0.77370276
0.77542539
0.79226405
0.82160741
0.85887682
0.89685161
0.92934552
0.95605411
0.98072638
1.0071062
1.0349768
1.0633023
1.0864881
1.09831
1.0955572
1.082782
1.0667283
1.0537489
1.0487716
1.0532721
1.0636398
1.0730886
1.0790782
1.0810678
1.0803169
1.0776911
1.0770148
1.0783023
1.078575
1.074304
1.0642922
1.0476834
1.0241477
0.99726166
0.97111662
0.94823076
0.92732454
0.90949021
0.89308129
0.87578403
0.85588102
0.83518167
0.81464102
0.7935778
0.77256406
0.75291901
0.7361108
0.72327576
0.72033091
0.73091277
0.7549261
0.78760104
0.82436641
0.85845063
0.88467032
0.90354899
0.9203972
0.94024033
0.96417574
0.99207768
1.0192641
1.039393
1.0473648
1.0456956
1.0387866
1.0316645
1.0287646
1.0329449
1.0426010000000001
1.0531331
1.0627533
1.0709142
1.0776634
1.0815163
1.0847337
1.0867666
1.0858471
1.0803802
1.0722224
1.0628507
1.0528784
1.0440631
1.0376983
1.0328976
1.0260189
1.0165509
1.0036128
0.98674574
0.96569429
0.94374504
0.92261944
0.9020256
0.88160483
0.86153473
0.8409449
0.81808225
0.7955101
0.77613792
0.76239105
0.75469174000000006
0.7560553
0.76632867
0.78360086
0.80628208
0.83452239
0.8669605
0.90034878
0.93326575
0.96358438
0.98852934
1.00443
1.0131609
1.0160221
1.0147174
1.0114068
1.0099475
1.0115312
1.0148875
1.0197753
1.0260216
1.0326674
1.0373955
1.0421198
1.0474066
1.0526902
1.0560465
1.0583239
1.058586
1.0551431
1.0480795
1.039311
1.0298748
1.0188998
1.0078622
0.99716872
0.98624048
0.97313704
0.95959464
0.94606325
0.93209038
0.91724954
0.90244327
0.88706341
0.86904733
0.84909139
0.8288531
0.81044068
0.79482989
0.78691301
0.78836314
0.79825535
0.81394445
0.83423911
0.85700489
0.88042916
0.90587739
0.93518864
0.96775045
0.99884752
1.0251509
1.0417885
1.0456061
1.0370131
1.0230582
1.0106054
1.00385
1.004509
1.0113837
1.0197945
1.0237511
1.0229762
1.0192802
1.0151679
1.011105
1.0092471
1.0077033
1.0027024
0.99178748
0.97633916
0.95828525
0.93877255
0.92071165
0.90563119
0.89293862
0.87934728
0.86586168
0.85248484
0.83916139
0.8257681
0.81421252
0.80455346
0.79522293
0.78637952
0.77933949
0.77540304
0.77481696
0.7814036
0.79686518
0.82072232
0.85016098
0.88372581
0.91757186
0.94726292
0.9708549
0.98887639
1.0020244
1.0101693
1.0159425
1.0205988
1.0242
1.0254691
1.0268181
1.0289933
1.0317211
1.0348952
1.0395675
1.0448636
1.0480869
1.0491134
1.0481146
1.0448011
1.0370052
1.0268883
1.0149032
1.0010186
0.98523491
0.97007065
0.95625157
0.94241158
0.92803322
0.91306674
0.89706283
0.87862146
0.86031907
0.84353278
0.82800601
0.81154902
0.79443236
0.77649387
0.75867965
0.74519522
0.7419793
0.75221879
0.77401175
0.80462202
0.83838812
0.86961755
0.8945128
0.91621413
0.93798072
0.96153557
0.98647646
1.0108326
1.0300461
1.0396608
1.0409567
1.0381915
1.0361944
1.0366099
1.042162
1.0503905
1.056649
1.057092
1.0526462
1.0450329
1.0356354
1.0269517
1.0203167
1.0144157
1.0053415
0.99327986
0.97845002
0.9616012
0.94327719
0.92677651
0.91302111
0.90076276
0.888899
0.87736295
0.8653538
0.85093621
0.83539731
0.81983664
0.80465268
0.78866876
0.77429986
0.76262985
0.75440489
0.7513365
0.75679106
0.77173182
0.79379105
0.82120877
0.85089631
0.87913215
0.90170483
0.92054034
0.93704768
0.95237981
0.96702936
0.98233659
0.996886
1.0077138
1.0143062
1.0176347
1.0188116
1.0177873
1.0177761
1.0197554
1.02302
1.0255453
1.0282522
1.0306775
1.0315547
1.0310362
1.0307017
1.0308013
1.0294645
1.0274564
1.0248678
1.0212167
1.0148598
1.0080057
1.0011757
0.99350704
0.98384553
0.97261214
0.95929535
0.94257337
0.92405165
0.9058059
0.88888517
0.87143448
0.85490075
0.83877453
0.82258965
0.80700284
0.79602529
0.79200745
0.79471701
0.80413353
0.81978302
0.84054859
0.86485186
0.89567788
0.9341312
0.97833473
1.022665
1.0619315
1.0893628
1.1001943
1.0958115
1.0830865
1.0697313
1.0604756
1.0593637
1.0653379
1.0737908
1.0784632
1.078785
1.0747874
1.0672291
1.0576962
1.0488892
1.0410284
1.032188
1.0232117
1.0156113
1.010484
1.0064282
1.0051498
1.0051089
1.0030843
0.99559616
0.98259822
0.96418742
0.9406239
0.91460767
0.88960597
0.86766618
0.848123
0.8328878
0.82229062
0.81603474
0.81349891
0.81736057
0.82857267
0.8463118
0.86992763
0.8985371
0.92907866
0.95676058
0.98063643
1.0003197
1.0162457
1.0287093
1.0414681
1.0551921
1.0679581
1.0771958
1.0817441
1.0804055
1.0729081
1.0634614
1.056601
1.0547195
1.0554964
1.0582441
1.0590452
1.0541246
1.0421368
1.0270978
1.0127754
1.00077
0.99219071
0.98637322
0.98058884
0.97093843
0.95910802
0.94734985
0.93751914
0.92928361
0.92326815
0.91706095
0.90710068
0.89238566
0.87538384
0.85898915
0.84429885
0.83392746
0.82777582
0.82356202
0.81749313
0.81052653
0.80332951
0.79704332
0.79417617
0.79889338
0.81335174
0.83725536
0.87128613
0.91386781
0.96055385
1.0035921
1.0391097
1.0627828
1.0727216
1.0707462
1.0636359
1.0572028
1.0542967
1.0565639
1.06314
1.070586
1.0738461
1.0734151
1.0704451
1.066448
1.0618843
1.0591271
1.0574472
1.0541335
1.0477011
1.0387089
1.0274415
1.0128933
0.99682577000000006
0.98004667
0.96239201
0.94234105
0.92218426
0.90277768
0.88397279
0.86566494
0.84929904
0.83527725
0.82299505
0.81434589
0.81109106
0.8135271
0.8189125
0.82777702
0.8388188
0.85111287
0.86522118
0.88481627
0.91135305
0.94305256
0.97741981
1.0104384
1.0370581
1.0524684
1.0581904
1.0567539
1.0511178
1.0433097
1.036683
1.0315087
1.0264632
1.0218768
1.0196605
1.0205051
1.0225414
1.0255841
1.0276484
1.0261209
1.0183209
1.0071514
0.99489605
0.98282048
0.97146155
0.96179263
0.95284091
0.94253476
0.93202543
0.92310919
0.91634413
0.90878198
0.90006516
0.88788407
0.87062728
0.84882462
0.82724642
0.80926866
0.79498357
0.78359608
0.77347815
0.76303973
0.7517399
0.74560233
0.74981373
0.76628129
0.791706
0.82163479
0.84886402
0.86807848
0.88045896
0.89257238
0.91078057
0.93674973
0.96927365
1.0014807
1.0247601
1.0327997
1.0283205
1.0172916
1.006584
1.0016023
1.0049398
1.0137412
1.0218614
1.0265794
1.0277572
1.0269164
1.0243404
1.0235959
1.0245033
1.024653
1.0211054
1.0141004
1.0037134
0.98966131
0.97352299
0.957197
0.94103668
0.92295737
0.90396201
0.88412439
0.863183
0.84040875
0.81817554
0.79740273
0.777619
0.75903315
0.74293188
0.72985314
0.71934416
0.71440065
0.71740778
0.72938671
0.74888525
0.77662957
0.81056619
0.8475632
0.88534299
0.92328167
0.95914458
0.98884128
1.0103312
1.0220222
1.0236342
1.0160047
1.0060988
0.99946448
0.99934226
1.0058667
1.0181142
1.0316191
1.0406792
1.0434
1.0410508
1.0358542
1.0285585
1.0225133
1.0180686
1.0135179
1.0060754
0.99661333
0.9855404
0.97293407
0.95983907
0.94784805
0.93661657
0.92352492
0.90837253
0.89094188
0.87115246
0.84839354
0.8255862
0.80419552
0.78448185
0.76661934
0.75198425
0.74078668
0.73223783
0.72837434
0.7313969
0.74269861
0.76120442
0.78863985
0.82327483
0.86148111
0.89905267
0.9340002
0.96356949
0.98492696
0.99828295
1.0052237
1.0071278
1.0040063
0.99952134
0.99550819
0.99237652
0.98907828
0.98698502
0.98531233
0.98197678
0.97625955
0.96900962
0.96019704
0.94826235
0.9347456
0.92060798
0.90623694
0.89083006
0.87718963
0.8661771
0.85719306
0.8493925
0.84340432
0.83878221
0.8340017
0.82986191
0.82707799
0.82500208
0.8203311
0.81335516
0.80382523
0.79284917
0.78343035
0.78154863
0.79057478
0.80961589
0.83601816
0.8653327
0.89248824
0.91342939
0.93074615
0.94770489
0.96658657
0.98672934
1.0069998
1.0228357
1.0293516
1.0257114
1.0154891
1.0035198
0.99325926
0.98889269
0.99083868
0.99645665
1.0011315
1.0045911
1.0064423
1.0065313
1.0052734
1.0041429
1.0022592
0.99654416
0.98643455
0.97253619
0.95613637
0.93747692
0.92081242
0.90756854
0.89670382
0.88527999
0.87202853
0.85485878
0.83199944
0.80540214
0.77947634
0.75834565
0.74330541000000006
0.73708481
0.73868717
0.74454932
0.74987456
0.75392247
0.75627382
0.75749041
0.76074281
0.77042775
0.78860457
0.8138699
0.84588586
0.88225708
0.91956284
0.95369999
0.98464327
1.011048
1.0308495
1.0426632
1.0470421
1.0443825
1.035446
1.0248588
1.0174582
1.0162528
1.020034
1.0290671
1.0399356
1.0483224
1.0511298
1.0497348
1.0456722
1.0395459
1.0329277
1.0269457
1.0210449
1.0127889
1.0036639
0.99467156
0.98610277
0.9766553
0.96694724
0.95552583
0.93995663
0.91969667
0.89692253
0.87401473
0.85202603
0.83403922
0.82112285
0.8120354
0.80317903
0.79465522
0.78613628
0.77828904
0.77393955
0.77794309
0.79252107
0.81603725
0.84666083
0.88065455
0.91357543
0.94087632
0.96419478
0.98481442
1.0036066
1.0205076
1.0360159
1.0481933
1.0542837
1.0548286
1.0523341
1.0492337
1.0458434
1.0448263
1.0459237
1.0472208
1.0461355
1.0439524
1.0410161
1.0367365
1.031303
1.02552
1.0186398
1.0083081
0.99567833
0.98191754
0.9676817
0.95188664
0.93643614
0.92111786
0.90467693
0.8864996
0.86834503
0.85122481
0.83467411
0.81988061
0.80734169
0.7962557
0.78374358
0.77150516
0.76047018
0.75213169
0.74879735
0.75494903
0.77227955
0.79913272
0.83338381
0.87157059
0.90890205
0.94003106
0.96486532
0.98371098
0.99742236
1.0067454
1.0146486
1.0217831
1.0273498
1.0317865
1.0365853
1.0419352
1.0459165
1.0490709
1.0508095
1.0500182
1.0449708
1.0383876
1.031445
1.0239232
1.0152273
1.0059929
0.99563529
0.98282721
0.96933639
0.95718539
0.94691245
0.93563882
0.9232187
0.90769176
0.88760344
0.86316522
0.83851111
0.81657314
0.7974392
0.78058383
0.76480962
0.74847415
0.73017974
0.71492733
0.70814985
0.71397465
0.73290003
0.76444555
0.80301348
0.84063522
0.87190149
0.89562424
0.91290946
0.92561937
0.93884323
0.95519702
0.97409013
0.99170216
1.0065118
1.0156548
1.017164
1.0119342
1.0040538
0.99696277
0.99218878
0.99223017
0.99771521
1.0072222
1.016832
1.0270896
1.0372519
1.0463724
1.0534659
1.0597253
1.0644277
1.0652237
1.0614589
1.0536874
1.0423258
1.0265961
1.0092046
0.99163183
0.97417092
0.95564909
0.93709935
0.91791589
0.89640904
0.872146
0.84638969
0.8200633
0.79306474
0.76852354
0.74882826
0.73524167
0.72717445
0.72698414
0.73486511
0.74994372
0.77176601
0.80102413
0.83626846
0.8737462
0.91123838
0.94607985000000006
0.97549632
0.99628725
1.010593
1.019618
1.0241615
1.0247598
1.0237485
1.0215312
1.0171124
1.011638
1.006798
1.0028817
0.99754824
0.99177733
0.9850747
0.97684344
0.96678361
0.95858303
0.95408882
0.95274879
0.95328698
0.95418487
0.95241151
0.944197
0.93054225
0.91380909
0.89656748
0.87952632
0.86533721
0.85351041
0.84167723
0.82785516
0.81284782
0.79787922
0.78407808
0.7751971
0.77454058
0.78368648
0.80102707
0.8272853
0.85991487
0.89484388
0.92790738
0.95755533
0.98192045
0.99946626
1.0116827
1.0208898
1.0282442
1.032526
1.0353152
1.0366039
1.0361072
1.0337006
1.0327438
1.0347783
1.0392176
1.0452041
1.0518381
1.0566168
1.055784
1.0497992
1.0396852
1.0264899
1.009876
0.99254591
0.97462642
0.95473107
0.9319153
0.90774433
0.88346883
0.85945198
0.83808511
0.82086011
0.80711942
0.79302695
0.77851872
0.763025
0.7473613
0.73417181
0.72921509
0.73565855
0.75253087
0.77734011
0.80582154
0.83268653
0.85304637
0.86878638
0.88295867
0.89866879
0.9171588
0.93985267
0.96407398
0.98517685
1.0005454
1.0103281
1.0155114
1.0167289
1.0174082
1.019064
1.021348
1.022081
1.0227318
1.0233359
1.0233941
1.0229819
1.023519
1.0246719
1.0243405
1.022735
1.0202275
1.0165592
1.0094929
1.0006844
0.99026257
0.9780805
0.96416292
0.95085614
0.93863046000000006
0.92563157
0.9106339
0.89316051
0.87307809
0.85005123
0.82813645
0.80970938
0.79449692
0.77929922
0.76324266
0.74564988
0.7283295
0.7176398
0.72174042
0.74420347
0.78051259
0.82301008
0.86067408
0.88463159
0.89195246
0.89098219
0.89229632
0.90383156
0.92756352
0.95930078
0.98888798
1.0057088
1.0070561
0.99691324
0.98318512
0.97225057
0.97069262
0.97783626
0.98843153
0.99646537
1.0003961
1.0003183
0.99721335
0.99423138
0.99391695
0.99608382
0.9974594
0.99825592
0.99826449
0.99750767
0.99562267
0.99491056
0.99522214
0.99412405
0.98933163
0.98000841
0.96539466
0.94462261
0.92099912
0.8980012
0.87783855
0.85972282
0.84470301
0.83105702
0.8163687
0.80004439
0.7850013
0.77409146
0.76878099
0.77191903
0.78471369
0.80641921
0.83391958
0.86765526
0.90571198
0.94479013
0.98084448
1.0114816
1.0335534
1.0446043
1.0463883
1.0430282
1.0385422
1.0345064
1.0343514
1.0381287
1.0439623
1.0495467
1.0538659
1.0555403
1.054341
1.0525774
1.0525476
1.0542173
1.0547288
1.051312
1.0406852
1.0224338
1.0004312
0.98227221
0.97208825
0.96768757
0.96141062
0.9440687
0.91084932
0.86653008
0.82540794
0.80107778
0.79678926
0.80114853
0.79590145
0.76659897
0.71700348
0.67285071
0.66960766
0.7283105
0.83669875
0.94782461
