0.71045024
0.71460658
0.75099926
0.80583866
0.86660333
0.93180969
1.0078742
1.1011338
1.2086169
1.3167231
1.4038394
1.4502049
1.4477288
1.4060956
1.3470329
1.2942165
1.2632535
1.2576965
1.2686324
1.2809609
1.2822295
1.2690856
1.2459843
1.2207056
1.2003949
1.1886867
1.1838874
1.1803172
1.173045
1.1601254
1.1419342
1.1192495
1.0938694
1.0672756
1.0399999
1.0108973
0.98157225
0.95340656
0.92764872
0.90388047
0.88416648
0.86908483
0.8587924
0.8517956
0.85022894
0.85451052
0.86427712
0.87699327
0.89334514
0.91191082
0.93096538
0.94827604
0.96584386
0.98346623
0.99997933
1.0135707
1.0254493
1.0351045
1.0416477
1.0450714
1.0482746
1.0523751
1.0567432
1.0604693
1.0633868
1.0631658
1.0563691
1.0417474
1.0206099
0.99457781
0.96524319
0.9364
0.91186732
0.893374
0.88012606
0.87233941
0.86971572
0.87143647
0.87612246
0.88535869
0.9004659
0.92169469
0.9468976
0.97534974
1.0048034
1.0326742
1.0556351
1.0745977
1.0901357
1.1028216
1.1110846
1.116705
1.1194734
1.1192755
1.1153955
1.1115501
1.1097543
1.110685
1.1125303
1.1147241
1.1140448
1.1069771
1.0911577
1.0686785
1.0414995
1.0112204
0.97904374
0.94719742
0.91593887
0.88491504
0.8551942
0.82986331
0.81055136
0.79667197
0.7870057
0.78027432
0.77454452
0.76837369
0.7637652
0.76443934
0.77272234
0.78756565
0.80744298
0.82964932
0.85155873
0.8715649
0.89306931
0.91958769
0.95189895
0.98514003000000006
1.0135332
1.0288829
1.0252091
1.0009639
0.96489964
0.92850129
0.90261994
0.8914786
0.89617123
0.90963206
0.9220705
0.92444127
0.91623971
0.90031726
0.88212628
0.86615738
0.85703787
0.85438356
0.85512728
0.85586665
0.85708514
0.85981242
0.8652781
0.87409152
0.88697527
0.90166949
0.91411113
0.92108424
0.92249691
0.91891213
0.91092973
0.90024979
0.88932524
0.87882577
0.86745164
0.85522132
0.84325437
0.83227077
0.82186372
0.81397903
0.81067797
0.81277663
0.81869741
0.82876667
0.84202696
0.85616847
0.86694652
0.87360744
0.87560905
0.87324277
0.86619964
0.85807416
0.85095983
0.84593008
0.84144544
0.83911029
0.83889506
0.8411528
0.84581134
0.85664002
0.87565962
0.90333664
0.93740193
0.97669649
1.0172412
1.0541694
1.0830844
1.1042779
1.1188809
1.1290061
1.1373408
1.1479277
1.1614467
1.1752806
1.1856446
1.1903038
1.1874098
1.1766308
1.1609635
1.1455842
1.1337496
1.1249777
1.1170704
1.1064459
1.0889016
1.0614582
1.0264832
0.98948078
0.95650261
0.93118502
0.91646531
0.91162407
0.91328278
0.91650569
0.92050025
0.92590854
0.93462112
0.94720384
0.96619028
0.99096201
1.0188392
1.0442538
1.0662014
1.0830833
1.0943533
1.0986694
1.0993446
1.0975809
1.093649
1.0862935
1.0778412
1.06869
1.0585407
1.0465284
1.0346219
1.0225916
1.0088757
0.9917476
0.97185018
0.9485978
0.92121018
0.89068155
0.86068932
0.83411119
0.81260978
0.79810125
0.79197429
0.79284788
0.79707444
0.8023447
0.80775643
0.81325752
0.81954857
0.83081242
0.85180663
0.88573989
0.93232819
0.99095738
1.0578439
1.1266007
1.188457
1.2387259
1.2739504
1.293018
1.2956101
1.2871004
1.2719447
1.2537638
1.2329636
1.212919
1.1939267
1.1755302
1.1558351
1.1369868
1.1192279
1.1019526
1.0830164
1.0629459
1.0405922
1.0149203
0.9857402
0.95646962
0.9298576
0.90787573
0.89158142
0.88230205
0.87873839
0.87795342
0.87756387
0.87751145
0.87822086
0.88054222
0.88691376
0.90039973
0.92174131
0.94845697
0.9776746
1.0060821
1.0295436
1.0436233
1.0482296
1.0454362
1.0380706
1.0279631
1.0198635
1.0168353
1.019735
1.0260856
1.0358224
1.0467277
1.0554614
1.0567268
1.0498481
1.0337956
1.0090321
0.97608615
0.94109774
0.90860274
0.88207993
0.86200073
0.8500079
0.84409853
0.84096662
0.83695703
0.83259236
0.82886526
0.82790153
0.83222502
0.84605868
0.87056999
0.9038658
0.94190268
0.98117062
1.0168448
1.0443808
1.0618281
1.0710349
1.0743015
1.0734252
1.0710312
1.0699837
1.0708757
1.0720554
1.0731022
1.0741261
1.0741442
1.0705293
1.0628533
1.0510383
1.0346801
1.0125233
0.98696575
0.96056479
0.93528737
0.91103716
0.88994174
0.87241918
0.85805183
0.8449755
0.83483083
0.82828997
0.82569522
0.8253705
0.82856122
0.83462773
0.84284503
0.85180113
0.86382461
0.87996421
0.90042682
0.92354491
0.94980989
0.97753417
1.0042996
1.0276421
1.0488123
1.0680235
1.0848072
1.0985941
1.1110398
1.1221256
1.1308235
1.1368201
1.1415224
1.1444385
1.1430348
1.1352094
1.1199176
1.0957066
1.0615488
1.0201646
0.976625
0.93580766
0.90073882
0.87462255
0.85833875
0.84988206
0.84472465
0.84086226
0.8374374
0.83517081
0.83524611
0.84243057
0.86024112
0.88997967
0.92882831
0.97481912
1.0234364
1.0699011
1.108807
1.1403695
1.1646962
1.1825202
1.1932122
1.1992911
1.200978
1.1979154
1.1892129
1.1779013
1.1656314
1.1531865
1.1400927
1.1272903
1.1129763
1.0942421
1.0690947
1.0391513000000001
1.0062508
0.97268199
0.94188531
0.91812265
0.90291113
0.89501727
0.89269458
0.89422798
0.89680289
0.8971999
0.89482054
0.89104061
0.88765155
0.88582782
0.88828904
0.89675113
0.91062933
0.92640767
0.94223778
0.95634189
0.96778407
0.97569059
0.98356639
0.99380329
1.0068598
1.0192001
1.0294291
1.0341289
1.0309711
1.0183621
1.0016844
0.98536479
0.9727175
0.96326769
0.95723916
0.9509389
0.94029096
0.92252168
0.90076099
0.8787822
0.86048157
0.84824815
0.84425925
0.84675725
0.85196624
0.85646801
0.85992689
0.86252161
0.86485234
0.86833705
0.87507665
0.88516611
0.89701286
0.90975902
0.92363195
0.93807122
0.95127427
0.96284151
0.97289952
0.98059897
0.98368155
0.98260991
0.97872761
0.97300285
0.96470169
0.95578426
0.94742835
0.93953929
0.92955286
0.91829852
0.90593806
0.89262488
0.87704417
0.86204732
0.84898786
0.83837349
0.82795943
0.81885005
0.80998003
0.80023387
0.78783378
0.77525771
0.76409061
0.75573984
0.75048406
0.75085001
0.75736865
0.76972859
0.78728062
0.81211384
0.84512222
0.88614947
0.93417716
0.98894792
1.0474897
1.1048184
1.1562346
1.1994684
1.232567
1.2543563
1.2664868
1.2728465
1.2763019
1.2775691
1.2774969
1.276033
1.2710431
1.2587002
1.2380185
1.2097882
1.1759379
1.1383794
1.1020936
1.0710703
1.0469391
1.0274975
1.0117595
0.99747915
0.98278987
0.96580313
0.94970263
0.93750131
0.93164132
0.93132721
0.93760334
0.94865768
0.96213293
0.97494514
0.9885254
1.0035865
1.020221
1.0364321
1.0521762
1.0651957
1.0729599
1.073825
1.0708392
1.0666063
1.0629382
1.0607876
1.0619648
1.0651451
1.0672993
1.0666562
1.0644706
1.0615613
1.0580171
1.055159
1.0548298
1.056619
1.058102
1.0585341
1.0579936
1.0558989
1.050743
1.0434945
1.0354024
1.0272004
1.0185229
1.0117468
1.0088277
1.0108148
1.0165899
1.0272174
1.0422195
1.0602128
1.0778214
1.0953568
1.1119393
1.1265601
1.1363278
1.1429752
1.1467335
1.1481201
1.1465714
1.1458173
1.1472841
1.1509915
1.1547525
1.1592438
1.1631554
1.1649289
1.1631783
1.1599874
1.1555034
1.1480926
1.1351321
1.1159488
1.0891279
1.0541858
1.0136541
0.97352889
0.93889679
0.91252426
0.89600363
0.88955671
0.89080947
0.89611665
0.90455727
0.91711523
0.93452497
0.95573734
0.9805425
1.0073747
1.0331754
1.0538225
1.0695507
1.0821244
1.0941261
1.1066706
1.1233095
1.1447031
1.1690577
1.1912983
1.2101378
1.2234027
1.2299267
1.2278462
1.2209091
1.2110157
1.1993722
1.1848161
1.1692077
1.1516026
1.1303506
1.1033664
1.0730099
1.0410932
1.0098749
0.98164263
0.96086233
0.94896559
0.94476053
0.9454987
0.94975955
0.95511052
0.95935686
0.96229406
0.96649522
0.97353212
0.98299652
0.99421872
1.0067118
1.0185881
1.0272217
1.0329773
1.0381832
1.0446936
1.0523973
1.062274
1.0740023
1.0855175
1.0930502
1.0966124
1.096777
1.0942295
1.0880331
1.0806011
1.0727122
1.0643451
1.0536893
1.0433423
1.034439
1.0275983
1.0208901
1.0161075
1.0125443
1.009357
1.0049583
1.0022607
1.0028237
1.007575
1.0157726
1.0289656
1.0464273
1.066522
1.0871359
1.1087945
1.1301657
1.1484822
1.1604737
1.1650568
1.1608031
1.1472895
1.126984
1.1056616
1.0882341
1.0773366
1.0743494
1.0789338
1.0874891
1.0943885
1.0964655
1.0929033
1.084008
1.0703691
1.0554314
1.0422407
1.0320112
1.0234535
1.0170509
1.0125258
1.0093267
1.0060934
1.0049513
1.007189
1.0132667
1.021279
1.0317364
1.0430237
1.0530279
1.0582881
1.0599651
1.0582167
1.0535337
1.0452457
1.036208
1.0270264
1.0174367
1.0060336
0.99501335
0.98493983
0.97588983
0.96753312
0.96232364
0.96052443
0.96097135
0.96200832
0.96377048
0.96453853
0.96151832
0.95288541
0.939231
0.92082952
0.89799484
0.87315012
0.85017238
0.83158266
0.817954
0.81029896
0.80884619
0.81191787
0.81615948
0.82045491
0.82443117
0.82807531
0.83110975
0.83647951
0.84670876
0.86312618
0.88443358
0.91136505
0.94284005
0.97692907
1.009886
1.04189
1.0716826
1.09755
1.1156522
1.126607
1.12988
1.1259744
1.1153815
1.1031464
1.0923425
1.0841991
1.076922
1.0698645
1.0598769
1.0437916
1.019865
0.99117397
0.96100889
0.93237497
0.90742706
0.88840024
0.87453534
0.86334038
0.85295504
0.8438
0.83635988000000006
0.83090669
0.82873401
0.83174234
0.8403938
0.85359204
0.87131161
0.89378853
0.91991439
0.9466299
0.97224581
0.99522433
1.0140567
1.0269947
1.0359238
1.0427323
1.0482241
1.0504858
1.0498348
1.0454413
1.0370356
1.0243172
1.0121064
1.0036687
1.0002772
0.9986171
0.99689336
0.99034006
0.97521441
0.94967946
0.9187949
0.88809364
0.86271461
0.84496597
0.83676947
0.83598073
0.83904051
0.84298633
0.84888451
0.8579599
0.87090685
0.88720902
0.90624746
0.92471764
0.93822505
0.94417098
0.94382207
0.93938809
0.93295227
0.92725117
0.92484738
0.92565271
0.92721414
0.92849528
0.92957575
0.93033983
0.92986429
0.9294162
0.92983903
0.93054394
0.9290483
0.92516964
0.91834934
0.90791425
0.89253412
0.8745482
0.85608097
0.83926481
0.82467575
0.81529369
0.81142883
0.8117042
0.81217915
0.8127132
0.81279023
0.81357418
0.81659027
0.82759501
0.84983391
0.88356822
0.92473162
0.96951217
1.0113661
1.044037
1.0634368
1.0714137
1.0709873
1.0654278
1.0572546
1.0490756
1.0400056
1.0269624
1.0075327
0.98226854
0.95246199
0.919927
0.88806227
0.86069557
0.83913138
0.82181042
0.80741168
0.79480144
0.78262789
0.76974138
0.75857802
0.75298294
0.75660995
0.77119817
0.79898592
0.83941116
0.88881778
0.94016483
0.98844986
1.0287726
1.0578567
1.0733594
1.0784198
1.0764273
1.0707433
1.0621494
1.0539398
1.0465329
1.0394045
1.0305691
1.0220089
1.0142489
1.0074636
1.0006583
0.9955492
0.99151981
0.98697198
0.97996465
0.97174965
0.96259971
0.95244182
0.94130602
0.93103312
0.92147422
0.9109685
0.89817423
0.88397428
0.86924355
0.85502758
0.84405191
0.84014468
0.84498956
0.85709345
0.87423902
0.89364309
0.91168725
0.92460745
0.93247639
0.93725785
0.94109112
0.94431899
0.94897674
0.95538444
0.96241273
0.96716945
0.97087
0.97468168
0.97982603
0.98542675
0.99371053
1.0043773
1.0159761
1.0247081
1.03159
1.036503
1.039857
1.0409697
1.0429576
1.0465819
1.0513778
1.0552358
1.0591465
1.0626948
1.0653206
1.066365
1.0679661
1.0703192
1.0719748
1.0706163
1.0658177
1.0564248999999999
1.0417279
1.0232174
1.0054729
0.99250925
0.98660429
0.98929579
1.0009806
1.0190714
1.0387219
1.0567859
1.0718845
1.0833217
1.0904349
1.0954465
1.1007206
1.107223
1.1134369
1.1197318
1.1257332
1.1305184
1.1318264
1.1311931
1.1296624
1.1279561
1.1247298
1.1221462
1.1204948
1.1194442
1.1165455
1.1136711
1.1108424
1.1078991
1.103282
1.0986537
1.0933566
1.085925
1.0741197
1.0593364
1.0422679
1.0241086
1.0064603
0.99364318
0.98745856
0.98725342
0.99072992
0.99684595
1.0031385
1.0071169
1.0084432
1.0100204
1.0139375
1.0204611
1.0296515
1.0413127
1.0531829
1.0618225
1.0667572
1.0696906
1.0723261
1.0748535
1.0788543
1.0843723
1.089015
1.0879124
1.079416
1.0626863
1.0380584
1.0059973
0.97173491
0.94006228
0.91501513
0.89780545
0.89190595
0.89748351
0.9128138
0.93321994
0.95801145
0.98495828
1.0124915
1.0385763
1.0653784
1.0929241
1.1197963
1.1424759
1.1600321
1.1701928
1.1713878
1.1635391
1.15114
1.1380912
1.1271998
1.1199754
1.118315
1.1209781
1.1247665
1.1270691
1.1276404
1.1258234
1.1205796
1.112364
1.1026344
1.0915025
1.0778003
1.0622129
1.0462163
1.0306308
1.01514
1.0014516
0.99096003
0.98388494
0.97872908
0.97632762
0.97721683
0.98145144
0.98750979
0.99653205
1.0083878
1.0219862
1.0340355
1.0447393
1.0531747
1.0588014
1.0599689
1.0601162
1.0609444
1.0636331
1.0672028
1.0733416
1.0805603
1.0861233
1.086379
1.0813862
1.0705101
1.0537725
1.0319496
1.0087414
0.98600482
0.96421025
0.94339837
0.92512477
0.90958192
0.89657928
0.88716735
0.88387165
0.8872742
0.89565183
0.90702655
0.91950487
0.93019113
0.93675572
0.93958464
0.94018358
0.94055599
0.9428166
0.95010137
0.96339038
0.98080827
0.99774714
1.0101087
1.0137512
1.007108
0.99214654
0.97562553
0.9630758
0.95641476
0.95223712
0.94571438
0.93111065
0.9073429
0.87944621
0.85860483
0.85226283
0.85972011
0.87052109
0.87102628
0.85049027
0.81109187
0.77047068
0.75539015
0.784693
0.85600462
0.94076811
0.99265588
