1.0168097
1.0075024
1.039484
1.0853158
1.1156694
1.1175139
1.0961292
1.068597
1.0514755
1.0539595
1.072472
1.0948821
1.1085693
1.1093528
1.1006956
1.0899913
1.0838145
1.085755
1.0938818
1.1025276
1.1068163
1.105983
1.1018168
1.0962999
1.0913032
1.0879308
1.0855848
1.0820854
1.0768712
1.0709626
1.0657002
1.060939
1.0573383
1.0552755
1.0547132
1.0536884
1.0542441
1.0571505
1.0630818
1.0708426
1.0837081
1.1026561
1.1277339
1.1565196
1.1890504
1.222016
1.2505716
1.2689798
1.2760453
1.2713384
1.25676
1.236402
1.2178579
1.2057422
1.2006175
1.1997262
1.1999121
1.1962276
1.1846361
1.1655179
1.1441493
1.1259281
1.1138558
1.1095405
1.1122087
1.1176995
1.1201511
1.1176302
1.1111941
1.103046
1.0943242
1.0880376
1.0852765
1.0849087
1.0833612
1.0808115
1.0775058
1.0739112
1.0686844
1.0641043
1.0605287
1.0577721
1.053667
1.050994
1.0505045
1.0522889
1.0542757
1.057982
1.0626844
1.067674
1.0723374
1.0802756
1.0929836
1.1101398
1.129554
1.1503272
1.1691667
1.1823862
1.1882191
1.1888938
1.1864059
1.1819674
1.1771556
1.1740515
1.1724232
1.1702037
1.1670824
1.1642918
1.1623136
1.1600098
1.1581282
1.1573696
1.1571037
1.1548994
1.1514408
1.1475766
1.1436528
1.1381393
1.1326276
1.1275371
1.1225665
1.115464
1.1081452
1.1013344
1.0955378
1.0890222
1.084233
1.0811809
1.079233
1.076158
1.0737859
1.0723879
1.0720747
1.072252
1.0755139
1.0821694
1.0911573
1.1006841
1.1116469
1.1236739
1.1362655
1.1500401
1.1678889
1.1904091
1.2155598
1.2405192
1.2626453
1.2777566
1.2815167
1.2733723
1.2561052
1.2332314
1.2075102
1.1835195
1.1648526
1.1525322
1.1444773
1.1405961
1.1400921
1.1413248
1.140882
1.1390727
1.1357131
1.1306473
1.1223435
1.1137502
1.1063968
1.1010725
1.0956975
1.0919919
1.0891543
1.086099
1.080706
1.0754038
1.0711102
1.0681691
1.0655257
1.0647554
1.0650448
1.0646586
1.0619181
1.058616
1.0557136
1.0538468
1.0541665
1.0594922
1.0701207
1.0840729
1.0995381
1.1157573
1.1307085
1.1417793
1.1489748
1.153908
1.157332
1.158419
1.15815
1.157394
1.1559728
1.1522596
1.1478192
1.1441037
1.1416576
1.1386565
1.1361346
1.1338237
1.1309783
1.1253667
1.1193958
1.1143474
1.111009
1.1073972
1.1052379
1.10359
1.1011466
1.0956262
1.0894382
1.0836856
1.0790422
1.0748205
1.0728558
1.0725028
1.0720507
1.0696139
1.0664916
1.0629302
1.0585983
1.0535017
1.0495879
1.0471461
1.0452819
1.0441721
1.0457039
1.0505788
1.0580982
1.0687125
1.0829998
1.099566
1.1149306
1.1276364
1.1368549
1.1416852
1.1407307
1.1363662
1.1311271
1.1266814
1.1222439
1.119468
1.1182469
1.1175305
1.1144075
1.1104859
1.1064242
1.1028561
1.0981844
1.0950857
1.0936597
1.0933364
1.0919226
1.0912782
1.0914398
1.0919039
1.0910916
1.090546
1.0898964
1.088095
1.0840152
1.0795605
1.0752709
1.0708311
1.0660674
1.0626718
1.0606972
1.0589762
1.0571781
1.0564637
1.0567024
1.0564129
1.0555912
1.0551735
1.0552102
1.0546677
1.0550642
1.0583604
1.0654426
1.0751
1.0880695
1.1038422
1.1204479
1.1338713
1.143611
1.1489378
1.1496058
1.1445467
1.1372142
1.1297501
1.1236055
1.11756
1.1137684
1.1116563
1.1100408
1.1065019
1.1028183
1.0992818
1.0958625
1.0915758
1.088489
1.0865885
1.0849566
1.0823605
1.0803642
1.0789812
1.0772784
1.0745035
1.0719268
1.0694323
1.0659934
1.0616737
1.0581179
1.0555756
1.0527221
1.0493883
1.0461954
1.0429084
1.0383179
1.0336913
1.0306347
1.0294029
1.0278313
1.0256605
1.0219203
1.0153358
1.0040643
0.99112734
0.97980498
0.97325315
0.97213157
0.97945868
0.9948075
1.0157139
1.0367145
1.0567219
1.0732991
1.0848742
1.0896704
1.0907485
1.0897143
1.0876346
1.084308
1.0822524
1.081597
1.0812737
1.079695
1.0780478
1.0761766
1.0733636
1.0694434
1.0663918
1.0645286
1.0627111
1.0603221
1.0580816
1.0555698
1.0514524
1.0462574
1.041682
1.0383443
1.0351645
1.0326714
1.031365
1.0307549
1.0289629
1.0270294
1.0260806
1.0267065
1.0277052
1.0305633
1.0355455
1.0420771
1.0476161
1.0533295
1.0591873
1.0650413
1.0688664
1.0728935
1.0771622
1.0812366
1.083205
1.0849114
1.0863386
1.0870087
1.0856427
1.0842577
1.0831108
1.0817085
1.0792077
1.0773944
1.0763552
1.0751857
1.0732101
1.0717984
1.0708786
1.0693072
1.0668383
1.0647175
1.0629317
1.060202
1.0566653
1.0533131
1.0500655
1.0454753
1.0401961
1.0353029
1.0311056
1.0264048
1.0224883
1.0201384
1.0191323
1.0172728
1.0153931
1.0135916
1.0118324
1.0087512
1.0071309
1.008429
1.0135034
1.0205966
1.0313622
1.044568
1.058108
1.0684118
1.0760551
1.0804537
1.0813558
1.0783755
1.0746519
1.0714704
1.0689506
1.0663284
1.0649888
1.0644034
1.0631042
1.0601438
1.0570676
1.0542567
1.0510937
1.0477358
1.0456035
1.0445617
1.0430099
1.0407724
1.0386824
1.0366592
1.033338
1.0294644
1.0261083
1.0233938
1.0197975
1.0163293
1.013714
1.0119614
1.0093485
1.0072381
1.0061192
1.0059325
1.0047598
1.0043186
1.0049337
1.0066326
1.0075248
1.010077
1.0148256
1.0219886
1.0302304
1.041613
1.0557345
1.0710453
1.0846474
1.0966038
1.105441
1.1096152
1.1082201
1.1037068
1.0976085
1.0908691
1.0845537
1.0809547
1.0801517
1.0804576
1.0806105
1.0806349
1.0797433
1.0766077
1.0719158
1.0674202
1.063701
1.0595533
1.0552538
1.0510862
1.0466318
1.0404556
1.0341592
1.0292872
1.0264638
1.024056
1.0228132
1.0223298
1.0219299
1.019818
1.0184108
1.0189184
1.021689
1.0240862
1.0263744
1.0262781
1.0215622
1.0099328
0.99425713
0.97684822
0.95999998
0.94481019
0.93425909
0.92836881
0.92571293
0.92454211
0.92588797
0.92958606
0.93477121
0.9407453
0.94830092
0.9565476
0.96365087
0.96906473
0.97399119
0.97872506
0.98242368
0.98546284
0.98865068
0.99156627
0.99256951
0.99222888
0.99155036
0.99080331
0.98877045
0.98647074
0.98434462
0.98204966
0.97771391
0.97257725
0.96711353
0.96132152
0.95342455
0.9451355
0.93682328
0.92874815
0.91963654
0.91257725
0.90883349
0.90911427
0.91218125
0.91918719
0.92849273
0.93720546
0.94155108
0.94128663
0.93612697
0.92694682
0.9158142
0.90760179
0.90502141
0.90816689
0.91519117
0.9243042
0.93185983
0.93409057
0.92992951
0.921701
0.91209582
0.90307488
0.89717363
0.8961845
0.89948724
0.9043971
0.91003854
0.91622353
0.92260341
0.92786512
0.93313187
0.93895853
0.94491363
0.94883207
0.95140872
0.95267824
0.95239911
0.94886286
0.94382861
0.93795139
0.93179113
0.9242968
0.91832569
0.91483083
0.91405486
0.91433557
0.91677902
0.92040894
0.92371303
0.92466058
0.92457714
0.92371846
0.9219707
0.91890291
0.91619446
0.91374818
0.91032995
0.90487417
0.89847667
0.89150376
0.88399635
0.87720317
0.87374796
0.87472911
0.87931349
0.88686959
0.89660282
0.90633241
0.91284455
0.91547907
0.91497205
0.91250313
0.90878058
0.90693222
0.90914544
0.91579768
0.92446663
0.93446883
0.94394006
0.95096722
0.95303873
0.95211476
0.94980806
0.94778289
0.94565047
0.94609427
0.94923241
0.95426848
0.9586635
0.96387616
0.96984409
0.9759523
0.98020833
0.98350234
0.98485356
0.98275823
0.97588903
0.96630467
0.95516748
0.9428934
0.92976184
0.917627
0.90684693
0.89681156
0.88769267
0.88086248
0.87600173
0.87085744
0.86406722
0.8556824
0.8463763
0.83742696
0.83304558
0.83705087
0.84975371
0.86634816
0.88175694
0.89081315
0.89116071
0.88447801
0.88053474
0.89036359
0.92192311
0.97489184
1.0441509
1.1171159
1.1792998
1.2179884
1.2313238
1.2230804
1.2016594
1.1750684
1.1519987
1.1349626
1.122082
1.1088661
1.0942957
1.0776453
1.0594826
1.0410622
1.0259017
1.0149848
1.0072551
1.0011603
0.99718121
0.99505168
0.99407184
0.9945229
0.99795245
1.0041854
1.011066
1.0168446
1.0202115
1.0191071
1.0110042
0.99635515
0.9773359
0.95647429
0.93536358
0.91754545
0.90540487
0.89950731
0.89778189
0.90021425
0.90568332
0.91263262
0.91801351
0.92299908
0.92774639
0.93273489
0.9370537
0.94430687
0.95540974
0.96996538
0.98512052
1.00115
1.016378
1.0293064
1.0386131
1.0469385
1.0552098
1.0629022
1.0680403
1.0701274
1.0671282
1.0572681
1.0408658
1.0217251
1.0031768
0.98715524
0.97500571
0.96760423
0.96332124
0.9589943
0.95347591
0.94751719
0.94177724
0.9359534
0.93124276
0.92840135
0.92679447
0.92432208
0.9215041
0.91924786
0.91840843
0.91858378
0.92196021
0.92955127
0.94143597
0.9555848
0.97284951
0.99227372
1.011978
1.0277541
1.0387837
1.0426242
1.0374495
1.0217753
0.99908797
0.97256317
0.94569989
0.92128368
0.90403651
0.89564452
0.895662
0.90220381
0.91472402
0.9306588
0.94660275
0.95981043
0.96984928
0.97574647
0.97636642
0.97197324
0.96431902
0.95408213
0.9408067
0.92540044
0.90983262
0.89569443
0.88387074
0.87710433
0.87766776
0.88554596
0.89743879
0.91058572
0.92114508
0.92518887
0.91911038
0.90451471
0.88448557
0.86300327
0.84246446
0.8274679
0.81938096
0.81746258
0.81806599
0.82110224
0.82499116
0.82868576
0.8307793
0.83340702
0.83695425
0.84093281
0.84371681
0.84601729
0.84728798
0.84695788
0.84498713
0.84399012
0.84530955
0.84913648
0.85522751
0.86413847
0.8745271
0.88397229
0.89111048
0.89622785
0.89903718
0.89859594
0.89537036
0.89058965
0.88470133
0.87718585
0.86952334
0.86358972
0.8603661
0.85895021
0.85997669
0.86303187
0.86654941
0.86737559
0.86551185
0.86100484
0.85423752
0.84451937
0.83458933
0.82594026
0.81938901
0.81342171
0.80977218
0.8082242
0.80816576
0.80769098
0.80831961
0.81009652
0.8125813
0.81435246
0.81659415
0.81890526
0.82029068
0.81966395
0.81856737
0.81765806
0.8171291
0.81747842
0.82082694
0.82763818
0.83686198
0.84762918
0.85996818
0.87281201
0.8843575
0.89447633
0.90415373
0.91368672
0.92215316
0.93009274
0.93805992
0.9457647
0.95164928
0.95652574
0.96113834
0.96567096
0.96875683
0.97157279
0.97457565
0.97787851
0.98012169
0.98295183
0.98649817
0.98996195
0.99021425
0.98744385
0.98077511
0.97027889
0.95627775
0.94333216
0.93462967
0.93180449
0.93366153
0.93951697
0.94579694
0.94811706
0.94292444
0.9310134
0.91404051
0.89436762
0.87494147
0.85990925
0.85106346
0.84796274
0.84980256
0.85632587
0.86586345
0.87560242
0.88413409
0.8911492
0.89603475
0.89774354
0.89763899
0.89752749
0.89824875
0.89880627
0.89985363
0.90131561
0.90257032
0.90205426
0.90150856
0.90210091
0.90436469
0.90673606
0.91030695
0.91449309
0.91858879
0.92079912
0.92372292
0.92843345
0.93539348
0.94301175
0.95186872
0.96014662
0.96546125
0.96531677
0.96103294
0.95349028
0.94366696
0.93239762
0.92229881
0.91384268
0.90598853
0.89747868
0.88880605
0.87968301
0.86944098
0.85853417
0.84875442
0.84063733
0.83326651
0.82653743
0.82084061
0.81581969
0.81041691
0.80576923
0.80344816
0.80411399
0.80661563
0.81131221
0.81778934
0.82498615
0.83081484
0.83637281
0.84234173
0.84891639
0.85436584
0.85958807
0.86401927
0.86712157
0.86742144
0.86785727
0.86992111
0.87442524
0.87998664
0.88741113
0.89510209
0.90103331
0.90315338
0.90323741
0.9022132
0.9004396
0.89745164
0.89427063
0.8900192
0.88312784
0.87292412
0.86142495
0.8501183
0.83966241
0.83092422
0.82530846
0.8225346
0.82094241
0.820092
0.82058373
0.82224375
0.8235582
0.82438576
0.82479299
0.82436386
0.8219303
0.81912838
0.81781847
0.8191789
0.82232916
0.82818301
0.83632276
0.84575766
0.85429175
0.86335133
0.87348096
0.88478544
0.8951068
0.90520466
0.91382055
0.91966197
0.92096543
0.92017359
0.91875732
0.91775718
0.91687019
0.91787812
0.92045197
0.92347667
0.92580301
0.92900188
0.93347425
0.93862242
0.94345881
0.94810988
0.95124114
0.95088799
0.94651094
0.93973405
0.93191647
0.92361359
0.91615291
0.91081448
0.90718498
0.90316391
0.89817632
0.89227949
0.88550913
0.87735588
0.86975657
0.86439394
0.86198333
0.86126883
0.86304446
0.8672059
0.87339704
0.88009852
0.88917669
0.90119194
0.91587095
0.9303858
0.944783
0.9569969
0.96497355
0.96634888
0.96307449
0.95641743
0.9476078
0.93696669
0.92700474
0.91807899
0.909504
0.90028981
0.89201838
0.88512616
0.87929199
0.87418944
0.87083352
0.86840359
0.86479794
0.85880542
0.85111523
0.84215535
0.83205122
0.82264721
0.81646662
0.81439181
0.81504359
0.81790981
0.82238794
0.82736268
0.83110301
0.8348646
0.84007508
0.84728863
0.8548186
0.86256335
0.86911087
0.87288401
0.87190416
0.86867247
0.86554846
0.86489802
0.86682057
0.87364972
0.8845472
0.89753446
0.90947105
0.92077345
0.93094156
0.93955925
0.94572506
0.95089613
0.95490615
0.95707097
0.95683218
0.95606386
0.95553428
0.95514952
0.95468123
0.95512828
0.95610925
0.95642791
0.95576713
0.95504379
0.95393884
0.95064305
0.94399631
0.93343759
0.91808928
0.89705919
0.87242595
0.84757818
0.82553118
0.80745105
0.79531717
0.78930211
0.78771255
0.78683595
0.78576464
0.78365926
0.78028884
0.7756534
0.77144253
0.76792621
0.7650563
0.76258858
0.76240692
0.76501148
0.7701706
0.77659534
0.78381794
0.79033256
0.79581433
0.8018187
0.81165722
0.82597745
0.84205427
0.85464663
0.85876411
0.85154652
0.83580833
0.82054112
0.81627593
0.82755053
0.84932115
0.86921632
0.87335637
0.85473955
0.82013162
0.79020138
0.7882144
0.82530674
0.88997302
0.94914191
0.95861265
