1.0869915
1.0681363
1.0938205
1.1395787
1.175323
1.183376
1.1635876
1.1300947
1.1000346
1.0862386
1.0901605
1.1035392
1.1135579
1.1128071
1.1011678
1.0845999
1.0695726
1.0614681
1.0608326
1.0640063
1.0647643
1.0600306
1.0498678
1.0364746
1.0212461
1.0057263
0.99005386
0.97323799
0.95330584
0.93068421
0.90738892
0.88577277
0.8665248
0.85045777
0.83787344
0.82843555
0.82026095
0.81467594
0.81309987
0.8165722
0.82455503
0.83874377
0.85989285
0.88712815
0.91726048
0.9489437
0.98051236
1.0095981
1.032894
1.0501582
1.0623201
1.0705167
1.0753012
1.0794488
1.0854942
1.0939407
1.1026034
1.1099907
1.114679
1.1149185
1.1091396
1.0991028
1.0884966
1.0804744
1.0764001
1.0776075
1.084469
1.095064
1.1059081
1.1150177
1.1221032
1.1268379
1.1286075
1.1279598
1.126261
1.1237179
1.1195632
1.1138829
1.1080364
1.1025875
1.0971889
1.091837
1.0874183
1.0835975
1.079139
1.0734967
1.0678348
1.0624196
1.0566782
1.0503902
1.0449014
1.0402242
1.0355534
1.0305252
1.0267933
1.024503
1.022628
1.0199224
1.0171569
1.0136532
1.0082026
0.99998732
0.99097043
0.98169636
0.9718057
0.96040863
0.94887174
0.93694195
0.92388924
0.90906358
0.89504853
0.88312199
0.87386952
0.86692896
0.86432603
0.86575672
0.86988347
0.87452561
0.88096679
0.88917643
0.89897818
0.90942329
0.92262755
0.93840969
0.95547707
0.97103488
0.98571032
0.99887741
1.0103705
1.0196887
1.0303531
1.0439266
1.0607509
1.0785141
1.0973152
1.1147663
1.1282941
1.1347022
1.1358126
1.132904
1.1277905
1.1207229
1.1152061
1.1120355
1.1109973
1.1096797
1.1096124
1.1109683
1.1143087
1.1186107
1.1264048
1.137675
1.151203
1.163185
1.1727426
1.177852
1.1774473
1.1704772
1.1603504
1.1497928
1.1410681
1.1339295
1.1298199
1.1278681
1.1266026
1.1234307
1.1196927
1.1162525
1.1138365
1.1110602
1.1090074
1.107011
1.1039105
1.0973094
1.0890334
1.0807019
1.0737173
1.0672625
1.0629881
1.0608302
1.0597728
1.0571801
1.0539633
1.0506442
1.0470722
1.0409407
1.0321662
1.0197664
1.0024449
0.97833298
0.9497635
0.91997037
0.89203358
0.86701882
0.84747306
0.83429314
0.82646169
0.82093918
0.81749061
0.8165972
0.81871901
0.82335196
0.83231444
0.84719234
0.86809836
0.89313902
0.92189888
0.95378384
0.98700633
1.0183847
1.0467318
1.0716972
1.0926384
1.1083861
1.1199451
1.1289928
1.1358962
1.1393623
1.1390239
1.1350439
1.1271797
1.1153388
1.1018722
1.0904922
1.0838054
1.0825152
1.0868377
1.096134
1.1077194
1.1179585
1.1249728
1.1291641
1.1311062
1.1311763
1.1304176
1.130555
1.1314173
1.1311984
1.1281706
1.1222138
1.112636
1.0986219
1.0804455
1.060788
1.0418101
1.0251082
1.0121851
1.0054233
1.0046328
1.0072225
1.0093377
1.0084726
1.0010921
0.98418831
0.95671322
0.92197649
0.88336393
0.84419528
0.8073078
0.77701566
0.75451288
0.73886845
0.72788917
0.72202813
0.72060325
0.72314351
0.72938525
0.7422724
0.76267758
0.78985359
0.82107674
0.85570724
0.89102571
0.9241593
0.95223851
0.97648358
0.99680808
1.012598
1.0218887
1.0258401
1.0241654
1.0172175
1.0056252
0.99448657
0.98724954
0.98601562
0.98981113
0.99899837
1.0109258
1.022635
1.0311017
1.038136
1.0452524
1.054225
1.0649575
1.0791404
1.0953394
1.111126
1.1228792
1.1309834
1.1355535
1.1375796
1.136906
1.1362247
1.1360338
1.1358728
1.1331697
1.1285321
1.1218318
1.113593
1.1033184
1.0939204
1.0865776
1.0813096
1.0753375
1.0687294
1.0604576
1.0502015
1.0371118
1.0246963
1.0150151
1.0084438
1.001584
0.99265478
0.97825359
0.95578107
0.92351817
0.88576398
0.84783556
0.81472921
0.78802383
0.76966796
0.75843502
0.75160633
0.74548505
0.74120048
0.74104945
0.74748876
0.76047633
0.78093441
0.80712541
0.83541106
0.86069523
0.88209067
0.90023904
0.91656366
0.93139122
0.94703491
0.9643981
0.98254785
0.99865076
1.0125054
1.0245876
1.0353317
1.0441638
1.0523931
1.0607651
1.0685051
1.0731676
1.0743225
1.0724092
1.0679603
1.0612087
1.0546127
1.0509823
1.0516039
1.0555824
1.0624259
1.0715109
1.0812331
1.0894489
1.0959474
1.1019242
1.1080252
1.1137425
1.1188517
1.1232598
1.1259274
1.1253976
1.1217949
1.116814
1.1116402
1.1063066
1.1007916
1.0951514
1.0881113
1.0778158
1.063985
1.0485775
1.0331024
1.018089
1.0040532
0.99232428
0.98257272
0.97359571
0.9650569
0.95878744
0.95528614
0.95364058
0.95250559
0.95203989
0.95121389
0.94899496
0.94547963
0.9433565
0.94331204
0.9437415
0.94128334
0.93397935
0.9190424
0.89515286
0.86376956
0.83134654
0.80348214
0.78360235
0.77173785
0.76755311
0.76719973
0.76643176
0.76264119
0.75922219
0.76018057000000006
0.76941851000000006
0.78854418
0.81934785
0.85888531
0.90177988
0.9415885
0.97630043
1.0042198
1.0250814
1.0387662
1.0485646
1.0557494
1.0607239
1.0624995
1.0633102
1.0638848
1.0646769
1.0647376
1.0660627
1.0686273
1.0718989
1.0739787
1.076582
1.0800435
1.0846868
1.0893522
1.0961823
1.1052271
1.1158928
1.1256398
1.1351157
1.1433717
1.1496618
1.1522289
1.1529266
1.1523461
1.1508578
1.1470166
1.1419448
1.1352
1.1262922
1.113677
1.0994022
1.0847843
1.0710854
1.0576517
1.0465619
1.038058
1.0317176
1.0251924
1.019674
1.0151746
1.0114036
1.0062165
1.0009284
0.99578068
0.99085676
0.98478848
0.97978936
0.97700079
0.97661329
0.97631201
0.97601089
0.97417528
0.96873882
0.95661751
0.93882426
0.91689059
0.89271082
0.86695663
0.84301254
0.82315318
0.80834499
0.79737991
0.79147965
0.79126353
0.79649761
0.80522251
0.81792865
0.83476242
0.85509923
0.87686575
0.90046876
0.92617731
0.95313602
0.9786411
1.0020284
1.0231108
1.0415806
1.0566056
1.0699455
1.0836623
1.0980113
1.1104528
1.1189891
1.1219058
1.1176073
1.1052971
1.0880448
1.0711152
1.0587565
1.0523346
1.0520204
1.0565083
1.062462
1.0660043
1.0662319
1.0651875
1.0651057
1.0670241
1.0715867
1.07877
1.0863776
1.0912684
1.0921418
1.0905043
1.0883382
1.0873094
1.0890504
1.0949475
1.1040402
1.1137535
1.1220301
1.1287493
1.1337283
1.1367606
1.1383616
1.1402832
1.142575
1.1439781
1.1433616
1.14152
1.1383016
1.1331635
1.1260528
1.1191024
1.1127713
1.1063116
1.0985405
1.0903769
1.0812251
1.0700861
1.0563361
1.042531
1.0301084
1.0197451
1.0111024
1.0054868
1.0014386
0.9959563
0.98523155
0.96890748
0.94633575
0.91800567
0.88529839
0.85367561
0.82698454
0.80767375
0.79577144
0.79285668
0.7974131
0.80679505
0.8174512
0.83002862
0.84436073
0.8606511
0.87816797
0.89949699
0.92458575
0.95211879
0.97868756
1.0044773
1.0279869
1.0480338
1.0626301
1.074431
1.0844475
1.0933832000000001
1.0998781
1.1061132
1.1118653
1.1165074
1.1176833
1.1174039
1.1161185
1.1144442
1.1112071
1.1091619
1.1088431
1.110257
1.1112506
1.1132775
1.1160344
1.119099
1.1204697
1.1216659
1.1227872
1.1237024
1.122787
1.1213593
1.119664
1.1178423
1.1147982
1.1123073
1.1111761
1.1118396
1.1130522
1.1159599
1.1203558
1.1253645
1.1284109
1.1298596
1.1293985
1.1266491
1.1200079
1.1112106
1.101396
1.0913248
1.0801083
1.0696377
1.0607607
1.0533629
1.0454057
1.0375693
1.0300939
1.0229262
1.0148063
1.0073543
1.0015569
0.99703638000000006
0.9910053
0.982596
0.97070219
0.95419895
0.93177939
0.90599552
0.88038328
0.85785282
0.83915446
0.82604116
0.81918253
0.8176783
0.81920072
0.823963
0.83301713
0.84664746
0.8633705
0.88281362
0.90437127
0.92621826
0.94558435
0.96221476
0.97729887
0.99141678
1.0037433
1.0144537
1.0239765
1.0315176
1.0355317
1.0366534
1.0373205
1.039277
1.0428744
1.0487312
1.0574964
1.0678204
1.07695
1.0833784
1.0876771
1.0900975
1.0904255
1.0893469
1.0888517
1.0892853
1.0895859
1.088995
1.0884649
1.0880428
1.0872511
1.0861392
1.0864301
1.0883556
1.090815
1.0923643
1.093162
1.0925056
1.0896334
1.0845981
1.0797317
1.0762339
1.074148
1.0727121
1.0724175
1.0721044
1.0701478
1.0654205
1.0597095
1.0540367
1.0490961
1.0452054
1.0443302
1.0464661
1.050757
1.0560114
1.0634593
1.072999
1.0839829
1.0949603
1.1063885
1.1165651
1.1230512
1.123074
1.1177201
1.1078234
1.0951114
1.0811012
1.0701889
1.06362
1.0601414
1.0553624
1.0473524
1.0328996
1.0104663
0.9800636
0.94805461
0.92034464
0.90198802
0.89408711
0.89809164
0.91011813
0.92384252
0.9309874
0.92896109
0.9162125
0.8942001
0.86492806
0.83551293
0.81047735
0.79240883
0.77968074
0.77320172
0.77112649
0.77177992
0.77256299
0.77621325
0.78439081
0.798452
0.81688883
0.84089181
0.86884255
0.89838874
0.92554426
0.95099898
0.97470893
0.99679588
1.0154932
1.0323073
1.0469681
1.0587945
1.0657211
1.0699255
1.073073
1.0765907
1.0796998
1.0840325
1.0894121
1.09473
1.0973164
1.0980115
1.0977331
1.0974217
1.0964292
1.0964275
1.0979755
1.1006796
1.1025088
1.1040461
1.1057205
1.1075479
1.1081274
1.1080748
1.1077535
1.1070352
1.1046738
1.1015953
1.098795
1.0965607
1.093602
1.09017
1.086551
1.0827133
1.07793
1.0738443
1.0724638
1.0747696
1.079737
1.0871342
1.0961604
1.1049937
1.11112
1.1145471
1.1163891
1.1173894
1.1171925
1.1165266
1.1158522
1.1142301
1.1096041
1.1018015
1.0919185
1.0806936
1.0681146
1.0555016
1.0447072
1.035987
1.0279928
1.0202763
1.0134722
1.0072511
1.0004538
0.99319004
0.98701718
0.98216714
0.97756244
0.97275319
0.96878113
0.96554113
0.96213591
0.95846547
0.956001
0.95432422
0.95125901
0.94448258
0.93356191
0.91750461
0.89588249
0.87020051
0.84514922
0.82409794
0.80854029
0.79848289
0.79471741
0.79589646
0.80024333
0.80702245
0.8189318
0.8372973
0.86174831
0.89002585
0.92089032
0.95082842
0.97628554
0.99507928
1.0099146
1.0233128
1.0372632
1.0519965
1.0689061
1.0862868
1.1013347
1.1111102
1.1170914
1.1205358
1.1229028
1.1245082
1.1278221
1.132553
1.1371723
1.1389953
1.1390631
1.1376097
1.1351624
1.1313419
1.1288543
1.1282778
1.1293114
1.1299645
1.1314096
1.1332697
1.1350567
1.1350956
1.1350709
1.1352994
1.1359798
1.1360218
1.1372129
1.1397513
1.143524
1.1469402
1.1513226
1.1563687
1.1615785
1.1648981
1.1675643
1.1691118
1.1690945
1.1656707
1.160985
1.1556401
1.1500161
1.1424267
1.1348787
1.1275956
1.1206592
1.1124906
1.105393
1.0998375
1.0954275
1.0893652
1.0823415
1.0740697
1.0649131
1.0545075
1.0465587
1.0427948
1.0425923
1.0410663
1.035085
1.0204046
0.99430231
0.95567397
0.91033238
0.86526838
0.82656815
0.79590595
0.77453618
0.76007818
0.74867691
0.73625664
0.72483461
0.71887208
0.7234966
0.74105577
0.77364534
0.81911183
0.87151133
0.92210951
0.96583547
0.99984279
1.0233022
1.0360347
1.0413786
1.0426839
1.0420159
1.0395366
1.0372968
1.0372914
1.0404904
1.0461401
1.0549191
1.0671734
1.0819217
1.0967472
1.111152
1.1253572
1.1389309
1.150425
1.1599942
1.1683112
1.1751492
1.1793801
1.1813562
1.182147
1.1820086
1.1803604
1.1776527
1.1750347
1.1727516
1.1700946
1.1670814
1.1645956
1.162724
1.1606802
1.1582437
1.1560673
1.1534658
1.1483168
1.1389074
1.1252314
1.1071845
1.0851023
1.0612678
1.0402913
1.0252181
1.0168403
1.0145495
1.0178857
1.0241186
1.029639
1.0318672
1.0311836
1.027165
1.018527
1.0037832
0.98350972
0.95739654
0.9256708
0.89023124
0.85656184
0.82864125
0.80839302
0.79543371
0.7899438
0.78937443
0.79081074
0.79251222
0.79748304
0.80812155
0.82587799
0.85004232
0.88076251
0.91462012
0.9469807
0.97329718
0.99402484
1.0097883
1.0219888
1.031421
1.0416218
1.0532349
1.0654693
1.0760132
1.0859263
1.0948055
1.1021796
1.1065839
1.1098563
1.1119796
1.1125027
1.109746
1.1057255
1.1010092
1.096159
1.0904764
1.0867965
1.0859709
1.088297
1.0922202
1.0993269
1.109258
1.1212973
1.1331259
1.1454326
1.1572101
1.1671917
1.1726444
1.1743583
1.1723438
1.1674145
1.1597086
1.1528755
1.1488339
1.1483247
1.1490654
1.1508017
1.1511281
1.1476506
1.137378
1.1224145
1.1049128
1.0875599
1.0711418
1.0590323
1.0518147
1.048321
1.0447355
1.0407264
1.0354656
1.0288178
1.019858
1.0114852
1.0051593
1.0007944
0.99525308
0.98765519
0.97613156
0.959162
0.93514738
0.90729156
0.87932904
0.85461127
0.83394249
0.81953025
0.81150189
0.80839244
0.80699951
0.80757988
0.81084194
0.81735754
0.82613827
0.83837717
0.85438259
0.87324531
0.89253861
0.91256667
0.93391682
0.95646924
0.9784325
0.99971301
1.019836
1.0374354
1.0503389
1.0591935
1.0657315
1.0712811
1.0758384
1.0805509
1.086189
1.0920456
1.0960882
1.0981359
1.0991023
1.0994901
1.0989553
1.0984706
1.0994129
1.1018242
1.1044228
1.1069614
1.1100336
1.1133691
1.1158877
1.1174542
1.1188026
1.11971
1.1194779
1.1178867
1.1145222
1.1084581
1.0991106
1.0875072
1.0753888
1.0637314
1.0524436
1.0411399
1.0290939
1.015364
1.0002931
0.9866554
0.97802712
0.97563332
0.97741133
0.97916433
0.97636637
0.96595666
0.94950817
0.93405222
0.92858849
0.93736546
0.95675872
0.97623059
0.98319434000000006
0.96879635
0.935054
0.89649501
0.87407993
0.88202539
0.91817909
0.96089876
0.97559314
