0.72262546
0.76656306
0.79076949
0.77811534
0.74649947
0.72363317
0.72371532
0.73734816
0.74576406
0.74231192
0.73298247
0.72598531
0.72507728
0.72572676
0.72160479
0.71357455
0.70577552
0.70053747
0.69796899
0.6941064
0.68508285
0.67269254
0.66119812
0.65483679
0.65645089
0.66291572
0.66996706
0.6781341
0.6939794
0.73088096
0.79736799
0.88295354
0.96145936
1.0033471
0.99287298
0.94297287
0.88546877
0.84788673
0.84066386
0.85307836
0.86438562
0.86471892
0.85715262
0.8485814
0.84509664
0.84471006
0.84042666
0.83247793
0.8248982
0.81922887
0.81560831
0.80838312
0.7906787
0.76558922
0.74056917
0.721471
0.71287443
0.71066122
0.70600785
0.69670818
0.68522555
0.6782453
0.68613346
0.71104536
0.74595555
0.78188206
0.80829737
0.821124
0.82695837
0.83275818
0.84162996
0.85316302
0.8606094
0.85870969
0.8501361
0.83931236
0.83089418
0.82793217
0.82649377
0.82161879
0.81231251
0.79853272
0.78323069
0.77035006
0.75892787
0.74690761
0.73318922
0.71619357
0.69818997
0.68352622
0.67331933
0.667729
0.66524085
0.66226524
0.65972248
0.66203284
0.67302384
0.69687368
0.73227643
0.77039237
0.80290667
0.82322229
0.82845226
0.82498812
0.82079719
0.81936353
0.82324052
0.82953413
0.83151516
0.8281696
0.81981922
0.80647049
0.79278035
0.78061505
0.76836128
0.75829757
0.75035867
0.74232164
0.73523594
0.72703807
0.71405718
0.69796956
0.68138979
0.66780182
0.66268683
0.66481785
0.66735003
0.66608962
0.6608448
0.65948064
0.67604671
0.7162179
0.77247507
0.82839611
0.86462686
0.8730334
0.86188868
0.84496235
0.83383553
0.83264655
0.83530146
0.83557195
0.8330871
0.8287201
0.82455987
0.82146063
0.81632746
0.80863669
0.80078044
0.79301955
0.78546273
0.77717362
0.76581296
0.75356122
0.74411909
0.73712521
0.73093477
0.72251399
0.70927239
0.69509745
0.68494803
0.67928222
0.67815417
0.68144322
0.69166267
0.71832829
0.76579302
0.82483596
0.8784716
0.90631332
0.89731282
0.86250196
0.82289692
0.79518705
0.78800868
0.79399743
0.79844915
0.79522008
0.78371688
0.76679947
0.75133196
0.73904109
0.72823826
0.72052091
0.71528614
0.71032547
0.70550073
0.69813258
0.68655101
0.67469656
0.66615712
0.6635407
0.66855474
0.67674017
0.68218938
0.6839989
0.68541789
0.6953968
0.72361301
0.7690676
0.82079209
0.86322736
0.8826329
0.87873396
0.8638149
0.85069475
0.84732841
0.85285805
0.85845932
0.85884333
0.85473719
0.84800305
0.84195431
0.83739314
0.83137439
0.82443027
0.81845019
0.81222488
0.80471863
0.79330214
0.77523122
0.75483492
0.73837911
0.72827722
0.72531024
0.72545977
0.72261394
0.71716575
0.71150251
0.70713606
0.70877371
0.71885386
0.73760703
0.76803337
0.80619772
0.84077233
0.86195794
0.8619945
0.84196789
0.81638468
0.79939334
0.79688315
0.80728007
0.81916257
0.82122875
0.81262504
0.79746482
0.78190252
0.77180296
0.76543426
0.75790142
0.7475472
0.73380044
0.71927572
0.70888294
0.70298854
0.69953311
0.69699601
0.69311894
0.68890723
0.68770644
0.68915393
0.69158469
0.69407305
0.69639013
0.70363905
0.72205609
0.75071804
0.78307394
0.80821444
0.81554847
0.80543106
0.78699964
0.76960104
0.76054208
0.75911218
0.75689021
0.74922662
0.73607571
0.71976858
0.70714121
0.7016598
0.70024745
0.70074835
0.7002815
0.69602944
0.6916023
0.69045726
0.69254098
0.69889996
0.70605438
0.70718712
0.70167862
0.69094435
0.67820201
0.67151657
0.67409462
0.68334912
0.69829057
0.71728428
0.74090923
0.77422829
0.8158698
0.85669828
0.88641838
0.8956083
0.88412095
0.86421294
0.84867197
0.8442015
0.85007036
0.85702678
0.85705557
0.850498
0.8410133
0.8334951
0.83140249
0.83227701
0.83324458
0.83431644
0.8349912
0.83600363
0.83799002
0.83803047
0.83447428
0.82774081
0.81752134
0.80583813
0.79478368
0.7829081
0.7698329
0.75578078
0.74029147
0.72707396
0.71983139
0.7183018
0.72283845
0.73158945
0.74075161
0.7510046
0.76236963
0.77143223
0.77691773
0.7766403
0.76896645
0.75988071
0.75503735
0.75522231
0.76066887
0.76624704
0.76513946
0.759156
0.7521676
0.74772632000000006
0.75111397
0.76083683
0.77055358
0.77707798
0.77673765
0.76792707
0.75546705
0.74365043
0.73555355
0.73422113
0.7359284
0.73353522
0.72424986
0.70966263
0.69832056
0.70251023
0.72534476
0.75880506
0.7894716
0.80429347
0.80153801
0.79138562
0.783519
0.78160226
0.78243152
0.77844948
0.76862566
0.75964541
0.75650788
0.75977569
0.76445131
0.76282008
0.75489734
0.74732033
0.74449616
0.74698647
0.74951711
0.74460132
0.73298799
0.72106661
0.71331732
0.71175932
0.7127398
0.71001605
0.70431543
0.69960485
0.69776684
0.70060264
0.70632455
0.71193591
0.72090003
0.73592403
0.75446115
0.77299439
0.78437752
0.78295991
0.77382335
0.76406254
0.75774385
0.75758231
0.75932278
0.75644014
0.74914707
0.7387531
0.72654023
0.71636598
0.70883103
0.70368849
0.70386638
0.70873156
0.71463924
0.71919111
0.71914282
0.71455554
0.71042322
0.70855301
0.70723705
0.70431312
0.69689139
0.68709968
0.68229027
0.68632313
0.698478
0.7144778
0.72752622
0.73648491
0.74618097
0.76005544
0.77897286
0.79892431
0.81122446
0.81182548
0.80304157
0.78949963
0.77848047
0.77414164
0.77372303
0.77408765
0.77260364
0.76726047
0.76140256
0.75846233
0.75764146
0.75837966
0.75838845
0.75476071
0.75016146
0.74692764
0.74341639
0.73884846
0.73075765
0.71734242
0.70413037
0.69600535
0.69297535
0.695214
0.69985562
0.70531639
0.71725527
0.73868357
0.76584574
0.79214447
0.80707845
0.8045187
0.79024419
0.77326558
0.76067537
0.75647782
0.75651799
0.75450612
0.74943986
0.74132469
0.73153682
0.723582
0.71789771
0.71500041
0.71748931
0.72433639
0.7325813
0.73928764
0.73991414
0.73368249
0.72436717
0.71450117
0.70626788
0.70089794
0.69652614
0.69316667
0.69224973
0.6925178
0.69344658
0.69515472
0.69758638
0.704997
0.72114473
0.74361605
0.76752515
0.78595316
0.79311233
0.79181306
0.78811698
0.78471846
0.78282703
0.77962678
0.77106602
0.76025706
0.75180788
0.74658672
0.74487762
0.7430816
0.73707353
0.73068577
0.72828195
0.73000531
0.7353025
0.7384925
0.73366767
0.72331546
0.71164702
0.70141569
0.69554543
0.6917444
0.68615759
0.67993885
0.67427626
0.67027008
0.67117438
0.67738709
0.68867149
0.70648602
0.72788147
0.7473346
0.76074248
0.76414265
0.75854737
0.75080079
0.74546687
0.74406068
0.74572976
0.7456347
0.74151515
0.73587473
0.73062186
0.72774628
0.72789298
0.72757376
0.7249576
0.72076675
0.71492049
0.7092596
0.70522671
0.70079765
0.69545627
0.68940449
0.68149905
0.67361447
0.66791367
0.66423955
0.66458472
0.67025448
0.68013343
0.69539509
0.71533504
0.73579684
0.75497886
0.770335
0.77901184
0.78357994
0.78594707
0.78520713
0.78320573
0.77998562
0.77463815
0.77157695
0.77255486
0.77521958
0.77870764
0.77985817
0.77644247
0.77256693
0.77079905
0.77029205
0.77018395
0.76639344
0.75613112
0.74290981
0.72998426
0.71890793
0.71080447
0.70290732
0.69300806
0.68335925
0.67585372
0.6724015
0.67526689
0.68330398
0.69550704
0.71201266
0.7295517
0.74435747
0.75383712
0.75539025
0.75116148
0.7464698
0.74339204
0.7423276
0.7418056
0.73815776
0.73197633
0.72646318
0.72226937
0.7198503
0.71765343
0.71188093
0.70330429
0.69461739
0.68641067
0.68020342
0.67517667
0.66807405
0.6601543
0.65391722
0.6501632
0.65123821
0.65594093
0.65937685
0.66073198
0.66078559
0.66132669
0.66843135
0.68364217
0.70177044
0.71846813
0.72838145
0.72948545
0.72843793
0.73068528
0.73656597
0.74495453
0.75070542
0.75023965
0.74758875
0.74622027
0.74629384
0.7472318
0.74538288
0.73962364
0.73536901
0.73621358
0.74129562
0.74680029
0.74531425
0.7334195
0.71592323
0.69907031
0.68786878
0.68420367
0.68395054
0.68325701
0.68203429
0.68052243
0.68070168
0.68487247
0.69215042
0.7025144
0.71621328
0.73031198
0.74263033
0.75159328
0.75514874
0.75564004
0.7565361
0.75771838
0.75912739
0.75916787
0.75454395
0.74704498
0.73985422
0.73353192
0.72979316
0.72784203
0.724402
0.72084168
0.71871164
0.71731232
0.71825376
0.72059427
0.72113065
0.72135818
0.72208387
0.72192458
0.72249956
0.72266116
0.71983862
0.71625476
0.71339896
0.71215453
0.71676053
0.7288224
0.74783912
0.77436693
0.80387765
0.82872853
0.84403222
0.84568081
0.83419379
0.81703631
0.80043644
0.78793948
0.78149183
0.7778678
0.77365086
0.76919442
0.76422851
0.75926283
0.7557419
0.75182833
0.7461852
0.739476
0.73093727
0.72126349
0.71204251
0.70233912
0.69266341
0.68479386
0.67890665
0.67681891
0.67974935
0.68514848
0.69136638
0.69726734
0.70142163
0.70685209
0.71671815
0.73024774
0.7467239
0.76286659
0.77363176
0.77930987
0.78130789
0.77919165
0.77488514
0.76823795
0.75728459
0.74518188
0.7345575
0.72518536
0.7190862
0.71516607
0.71018619
0.70606221
0.70327904
0.70024501
0.69816811
0.69585699
0.69152756
0.68785155
0.68569156
0.68387295
0.68304575
0.68168914
0.67882637
0.67770879
0.67985266
0.68518174
0.69422788
0.70445638
0.71384947
0.72375133
0.7339799
0.7442158
0.75487179
0.7632993
0.76769833
0.76902963
0.76693459
0.76212625
0.75637275
0.74862598
0.73887802
0.72889353
0.71893586
0.7108118
0.70634558
0.70352792
0.70062016
0.69625728
0.68818622
0.67805076
0.66894671000000006
0.66143296
0.65660404000000006
0.65381013
0.64993163
0.64541816
0.64195047
0.64017086
0.64328273
0.65265086
0.66636852
0.68456579
0.70532825
0.72401395
0.73942279
0.74992364
0.75374933
0.75480023
0.75567596
0.75571303
0.75674665
0.75740841
0.75476335
0.75097149
0.74669833
0.74074274
0.73494374
0.72889048
0.72158704
0.71576712
0.71151783
0.70668185
0.70097585
0.69257298
0.68109084
0.67067298
0.66374712
0.66085235
0.66241805
0.66546566
0.66763715
0.67039095
0.67473044
0.68231801
0.69518449
0.71141074
0.7289453
0.74745904
0.76549608
0.7833197
0.80125948
0.81531007
0.82156656
0.81798548
0.80394779
0.78480846
0.7680814
0.75668496
0.75098524
0.7480552
0.74269605
0.73514538
0.72871662
0.7248141
0.72496987
0.72733604
0.72689314
0.72308832
0.71742236
0.71082568
0.70670162
0.70572456
0.70509005
0.70501256
0.70509025
0.70370126
0.70316715
0.70405113
0.70474931
0.70779589
0.71385115
0.72190238
0.73395085
0.74812142
0.75991344
0.76859969
0.77317326
0.77435878
0.77741884000000006
0.78368507
0.78994427
0.79298329
0.787783
0.77274931
0.75353485
0.73552073
0.72198244
0.71444118
0.70928561
0.70309962
0.69661212
0.6904662
0.68608892
0.68527257
0.68618086
0.6872689
0.68885767
0.68991905
0.69078998
0.69254594
0.69373571
0.69435863
0.695742
0.69773911
0.70206821
0.70997341
0.7189456
0.72735283
0.7336382
0.73531646
0.73407057
0.73197566
0.72785655
0.72213839
0.7147718
0.70508059
0.69740065
0.69517674
0.69669353999999994
0.6998711
0.70038808
0.69427865
0.68539128
0.67883447
0.67631774
0.67929973
0.68458048
0.68705209
0.68796739
0.68867304
0.68874743
0.68985377
0.69096501
0.69099764
0.69403441
0.70213835
0.7140294
0.72882193
0.74301627
0.75453431
0.76654118
0.77992363
0.792276
0.80079508
0.80062521
0.79053679
0.77614341
0.76259121
0.75277351
0.74727378
0.74178514
0.73311209
0.72268107
0.71218103
0.70412244
0.70054165
0.69930832
0.69857513
0.69818859
0.69689884
0.69530261
0.69458413
0.69343315
0.69202588
0.69116238
0.68986339
0.68923594
0.69034789
0.69178168
0.69400201
0.69706815
0.69918077
0.70165985
0.70542582
0.70899309
0.71329721
0.71784568
0.72003609
0.72102676
0.72115317
0.71852238
0.71484064
0.71072942
0.7051683
0.7013953
0.70023605
0.69870131
0.69682382
0.69299679
0.68566871
0.67905433
0.67537713
0.67344594
0.67327356
0.67213305
0.66775363
0.66337657
0.66092064
0.66007939
0.66135478
0.66257007
0.66261219
0.66498258
0.67142201
0.68180144
0.69618825
0.71206221
0.72840021
0.74723178
0.76742491
0.7857738
0.79918564
0.8040751
0.80178023
0.79822376
0.79652229
0.79689004
0.79686549
0.79147983
0.78052086
0.76855943
0.7587998
0.75333244
0.75113299
0.74749707
0.74125602
0.73424134
0.72732962
0.72256639
0.72015735
0.71738691
0.71464394
0.71272187
0.71000972
0.70677913
0.70252119
0.69595008
0.69068695
0.68961791
0.69174836
0.69718406
0.70378987
0.70899155
0.71640892
0.72815642
0.7419273
0.75634813
0.76669457
0.76879096
0.76621482
0.76241613
0.75838328
0.75614703
0.75381829
0.74908998
0.74495512
0.74286496
0.74197062
0.74240843
0.74136095
0.73691988
0.73214901
0.7285898
0.72607263
0.7245837
0.72088591
0.71310412
0.70401414
0.6958233
0.69056475
0.68970591
0.69031068
0.68993903
0.68967983
0.69140596
0.6993494
0.71665064
0.73945853
0.76116963
0.77556662
0.77858858
0.77446777
0.77174882
0.77492916
0.78470734
0.79640617
0.80187825
0.79920462
0.79171641
0.7831621
0.77860786
0.7789929
0.78011005
0.78025419
0.77817205
0.77167562
0.76250479
0.75183147
0.73941558
0.72894721
0.72210538
0.71667587
0.71255916
0.70838146
0.70299869
0.70128796
0.70609497
0.71605241
0.73027874
0.7445808
0.75506964
0.76405502
0.77297954
0.78116812
0.78881139
0.79237083
0.78853293
0.77998393
0.76972429
0.76082574
0.75730205
0.75754832
0.75744257
0.75544217
0.74985621
0.74176669
0.73529046
0.73045625
0.72508204
0.71782822
0.70706804
0.69540629
0.68845485
0.68715432
0.68887001
0.68949935
0.68491026
0.67771567
0.67504991
0.68036067
0.69337062
0.70982567
0.72390078
0.73640299
0.75159855
0.77073278
0.79086057
0.80401489
0.80473314
0.79777877
0.79196369
0.79221753
0.79687716
0.79792852
0.79069970999999994
0.78080714
0.77515216
0.77367117
0.77019725000000006
0.75823547
0.74224295
0.73727584
0.74941419
0.76452213
0.7588152
0.72151592
0.67503696
0.66295472
0.70535415
