0.73534837
0.77029127
0.80229558
0.80619405
0.78898373
0.77580485
0.78526136
0.81482189
0.84415547
0.85411398
0.84290232
0.82275935
0.80744533
0.80373062
0.8071303
0.80786003
0.80233112
0.79325209
0.78477352
0.78140563
0.78304134
0.7848756
0.78341747
0.77785099
0.76902576
0.76042001
0.75615035
0.756576
0.76032055
0.76486435
0.76689048
0.76696023
0.76986467
0.77811232
0.79056085
0.80467398
0.81487659
0.81699101
0.81447825
0.81198544
0.81166163
0.81652377
0.82408454
0.82903016
0.83104706
0.83129057
0.83060249
0.83182659
0.83575185
0.83965565
0.84194881
0.84244931
0.84032931
0.83629521
0.83269567
0.8295767
0.82617019
0.82373801
0.82173237
0.81867339
0.81630565
0.81426907
0.80972989
0.80399577
0.79733244
0.78946882
0.78410999
0.78289001
0.78316913
0.78276568
0.77937847
0.77146436
0.76270602
0.75917705
0.76299794
0.77238109
0.78314721
0.78862444
0.78529135
0.77698296
0.76841697
0.76234298
0.76165302
0.76435725
0.7657824
0.76702924
0.7688576
0.77064077
0.77421346
0.77926001
0.78376854
0.78930479
0.79774894
0.80815378
0.81916007
0.8286109
0.83306662
0.83222505
0.829804
0.82841176
0.82897377
0.83228003
0.8357407
0.83602054
0.83457404
0.83248516
0.82904187
0.82670001
0.82506142
0.82174398
0.81815443
0.81506748
0.81132053
0.80751954
0.80360269
0.79796994
0.79146957
0.78643855
0.783341
0.78226575
0.78343425
0.78426606
0.78205138
0.77767263
0.77151789
0.76365679
0.7574367
0.75355962
0.74977393
0.74756949
0.74663727
0.7456527
0.74729226
0.75288752
0.7608811
0.77079827
0.7808716
0.7875608
0.79006592
0.78958304
0.78637134
0.78155534
0.77725632
0.77318765
0.76881827
0.76639639
0.76660529
0.76890496
0.77540947
0.78548907
0.79567102
0.80609847
0.81478199
0.81817191
0.81683069
0.81150846
0.80247511
0.79330095
0.78705824
0.78339516
0.78157422
0.78050137
0.77751509
0.77189359
0.76581658
0.75985919
0.75359101
0.74840057
0.74409867
0.74037279
0.74097247
0.7471093
0.75581468
0.76615584
0.77477409
0.77828697
0.77933504
0.78110573
0.78428899
0.78971182
0.79610698
0.80035617
0.80263813
0.80560667
0.81023268
0.81649731
0.82367555
0.8282712
0.82785699
0.82484778
0.8216528
0.81958653
0.82140917
0.82583857
0.82833553
0.82886738
0.82698515
0.82203256
0.81734347
0.81475471
0.81306698
0.81228652
0.81174118
0.80918028
0.80472088
0.80015356
0.7958203
0.79235237
0.79106755
0.79040263
0.78808418
0.78476555
0.78022941
0.77399652
0.7692059
0.76650816
0.76343241
0.761204
0.75939831
0.75685246
0.75687051
0.76151009
0.76953904
0.78030222
0.79162342
0.79968808
0.8039071
0.80614269
0.80723318
0.80829809
0.81074878
0.81317903
0.81401978
0.81475841
0.81566437
0.81600673
0.8177838
0.82057898
0.82183243
0.82329039
0.82501752
0.82541003
0.82606737
0.8273873
0.82797771
0.8289924
0.83122244
0.83302688
0.83363277
0.83270854
0.82847835
0.82075238
0.81186324
0.80257854
0.79294428
0.78475519
0.77745891
0.76932503
0.76236759
0.75706345
0.75176037
0.7487822
0.74811383
0.74777593
0.74917098
0.75246218
0.75569699
0.75927944
0.76349137
0.76709455
0.77097978
0.77687914
0.78405602
0.7915044
0.79894109
0.80400399
0.80495966
0.80395355
0.80246524
0.80123481
0.80349266
0.8090363
0.81428489
0.81930391
0.82277186
0.82301221
0.82295113
0.82460578
0.82712448
0.8303817
0.83275655
0.83081624
0.82421282
0.81561822
0.80755038
0.80321381
0.8057147
0.81354146
0.82242796
0.82966746
0.83170852
0.82615565
0.81649243
0.80597031
0.79565526
0.78917259
0.78599897
0.78223571
0.77736325
0.77119259
0.76362452
0.75833509
0.75839089
0.76294723
0.77037625
0.77842137
0.78342558
0.78446548
0.78439849
0.78516112
0.78784176
0.79428425
0.80283869
0.81018073
0.81682754
0.82228846
0.82466156
0.82626436
0.82721377
0.82584862
0.82402505
0.82262664
0.82062179
0.81923913
0.81919403
0.81932075
0.82019416
0.82297921
0.82651621
0.82967402
0.83241927
0.83299448
0.8300982
0.82566683
0.82036703
0.81373091
0.80802973
0.80323917
0.79712272
0.79181279
0.78802308
0.78495781
0.78476415
0.78730086
0.78912703
0.78864349
0.78488894
0.77714041
0.76857593
0.76388747
0.7644169
0.76932768
0.77679993
0.78240573
0.78305978
0.78075345
0.77724675
0.77308556
0.77095643
0.77054488
0.76938218
0.76963376
0.77158465
0.77319776
0.77504644
0.77660268
0.77679627
0.77849472
0.78437341
0.79343577
0.80360399
0.81197767
0.81499294
0.81291594
0.81027815
0.8100209
0.81245667
0.81713939
0.82030721
0.81840536
0.81418849
0.8109629
0.80994743
0.81392673
0.82064625
0.82436743
0.82316827
0.81632838
0.80391444
0.78989409
0.77792026
0.76855325
0.76228303
0.75906865
0.75660683
0.7535487
0.75075893
0.7478084
0.74429455
0.74229411
0.74204811
0.74269956
0.74656984
0.75372258
0.76143718
0.77038845
0.77898127
0.78436133
0.78781788
0.79006886
0.79001123
0.78858419
0.7861313
0.78140954
0.77541639
0.77018749
0.76574254
0.76217977
0.76043518
0.75958531
0.75916756
0.76157359
0.76716771
0.77425483
0.78296743
0.79094828
0.79432159
0.79459834
0.79295076
0.78961622
0.78766741
0.78787126
0.78779866
0.78660312
0.7835271
0.77705789
0.76846523
0.76052558
0.75409105
0.74975747
0.74840813
0.74808302
0.74636737
0.74380611
0.74002076
0.73430906
0.72953134
0.72648863
0.7234471
0.72237574
0.72323207
0.72438748
0.72770455
0.73399251
0.7418519
0.75154115
0.76233471
0.77122327
0.77698157
0.7799403
0.77981259
0.77797546
0.77748061
0.77879871
0.78100879
0.78454076
0.78769517
0.78814008
0.78766833
0.78689666
0.78451959
0.78297901
0.78251076
0.78160043
0.78216348
0.78513552
0.78919599
0.79453083
0.80033951
0.80365568
0.8034446
0.80050132
0.7949281
0.78808696
0.78293488
0.77987319
0.77785963
0.77728711
0.77626132
0.77199424
0.76602847
0.7594762
0.75248918
0.74963622
0.75273458
0.76017744
0.7717506
0.78470944
0.7941238
0.79845321
0.79790275
0.79301365
0.78729965
0.78484659
0.78632316
0.79090965
0.79774759
0.80397169
0.80763704
0.81058583
0.81357247
0.8159545
0.81925611
0.82248239
0.82288416
0.82245038
0.82181418
0.81989303
0.81836962
0.81738673
0.81526721
0.81303639
0.81156156
0.80939729
0.80595449
0.80121125
0.79415229
0.78580048
0.77967057
0.77697151
0.77692194
0.77924675
0.78102281
0.77897651
0.77487961
0.76989619
0.76316076
0.75706055
0.75127077
0.74382707
0.73694346
0.73230019
0.72940408
0.72940351
0.73255909
0.73727274
0.74400244
0.75374043
0.76441292
0.77329142
0.77900596
0.78002415
0.77741986
0.77637718
0.77929488
0.7844235
0.79034683
0.79343501
0.79079388
0.78724799
0.78742621
0.79255373
0.80293407000000006
0.81404835
0.81887068
0.81561621
0.80673506
0.79611027
0.78945359
0.79059755
0.7978303
0.80731975
0.81617309
0.8210131
0.82028893
0.8164208
0.81042547
0.80161404
0.79191355
0.78176886
0.77057539
0.76255562
0.75953278
0.75965231
0.76202089
0.76359878
0.76063248
0.7544228
0.74833384
0.74422511
0.74396087
0.74803671
0.75415981
0.76114686
0.76997116
0.77933549
0.78647799
0.79039037
0.78953662
0.7842346
0.78027024
0.78099974
0.78450036
0.78929052
0.79125963
0.78759749
0.78292227
0.78225486
0.78620811
0.79301226
0.79768113
0.79509717
0.78686883
0.77962312
0.77797723
0.78255392
0.79018085
0.79408227
0.79029039
0.7824239
0.77533015
0.77145204
0.77244915
0.77499611
0.7737157
0.77000465
0.76594181
0.76198115
0.7599066
0.75831249
0.75368355
0.74670099
0.73980499
0.73397081
0.73042414
0.72945516
0.72906874
0.72902199
0.73197351
0.73875459
0.74839627
0.76036273
0.7712731
0.77741519
0.78044578
0.78195593
0.78199507
0.7838392
0.78754492
0.79071638
0.79436881
0.79896857
0.8035604
0.80930485
0.81638563
0.82249534
0.8266397
0.82878679
0.82777799
0.82381407
0.81901604
0.81366965
0.80754217
0.80256317
0.79875345
0.79506237
0.79382735
0.79559493
0.79844876
0.80369335
0.80998298
0.81379074
0.81495527
0.81308746
0.80703494
0.79883097
0.79049664
0.78179565
0.77337639
0.76607643
0.75880805
0.75148438
0.74596415
0.7422295
0.73971169
0.73999625
0.74273585
0.74665432
0.75387528
0.76421456
0.77460511
0.78539254
0.79479448
0.80008691
0.80306429
0.8050556
0.80534641
0.80481159
0.80338322
0.79929746
0.79321544
0.78728588
0.7820792
0.77833401
0.77729088
0.77784536
0.77893805
0.78221015
0.78757046
0.79338122
0.80037849
0.80690443
0.80942819
0.8092685
0.80690637
0.80183709
0.7968515
0.79319276
0.78950552
0.78618466
0.78332805
0.77947935
0.7751203
0.77164519
0.76843845
0.76512456
0.76241906
0.75891942
0.75309318
0.74616368
0.73776197
0.7266947
0.71556567
0.7058484
0.6977388
0.6957216
0.70150999
0.7132476
0.7302164
0.74908456
0.76451919
0.77491612
0.78053213
0.7816258
0.78096182
0.78167516
0.78385519
0.78691958
0.79082238
0.79339746
0.79282466
0.79064709
0.78760356
0.78398455
0.78305113
0.78549388
0.78902382
0.79427349
0.79945411
0.80121579
0.80024856
0.79728477
0.79216741
0.78740548
0.78496297
0.78411913
0.78469806
0.78679826
0.78876173
0.78983968
0.79124016
0.79244433
0.79236221
0.79196542
0.7902415
0.78524398
0.77904017
0.7724962
0.76454237
0.75781186
0.75202888
0.74440037
0.73578515
0.72727781
0.71980412
0.71758377
0.72366899
0.7365944
0.75337724
0.76993198
0.78095939
0.78465629
0.78414046
0.78276454
0.78339896
0.78890048
0.79732628
0.80393612
0.80763645
0.80784905
0.80473258
0.80378066
0.80766314
0.81479085
0.82426165
0.83293316
0.83678035
0.83644139
0.83426661
0.83120698
0.82861829
0.82682679
0.82337173
0.81684602
0.80872667
0.79989806
0.79120843
0.78506693
0.78097286
0.77655063
0.7726727
0.76912281
0.76424195
0.76052674
0.75812657
0.75493351
0.75199301
0.74960064
0.74684017
0.74574914
0.7480368
0.75271843
0.75923313
0.76676094
0.77246748
0.774986
0.77566475
0.77488494
0.77306176
0.7724883
0.77277621
0.77200645
0.77159104
0.77151956
0.77032634
0.7708289
0.7735173
0.77656766
0.78081643
0.78556973
0.78836974
0.78960156
0.79005333
0.78925135
0.7884417
0.78924324
0.79088363
0.79261513
0.79476051
0.79581905
0.79438326
0.7918216
0.78814177
0.78246095
0.77709406
0.7724764
0.76687167999999994
0.7624259
0.75931308
0.75596403
0.7540473
0.75390164
0.75364376
0.75348873
0.75351624
0.75245823
0.75116926
0.75136175
0.75244999
0.75370044
0.75537076
0.75603341
0.75473033
0.75345075
0.75221188
0.74933428
0.746104
0.74273588
0.73893211
0.73922362
0.74525606
0.75444427
0.76494804
0.77320596
0.77588039
0.77523119
0.77527207
0.77755442
0.78239533000000006
0.78804757
0.7904014
0.78791098
0.78329359
0.77890888
0.77607362
0.7762854
0.7774509
0.77626386
0.77411285
0.77236529
0.77093204
0.77260663
0.77624333
0.77740596
0.77507217
0.76905505
0.7598189
0.75167436
0.74813312
0.74838444
0.75030757
0.75129102
0.7482096
0.74147296
0.73547078
0.73300194
0.73451954
0.74004906
0.74638738
0.75009513
0.75319951
0.75749184
0.76238602
0.76956616
0.77702874
0.78086388
0.78193586
0.78185661
0.78123277
0.78241038
0.78613087
0.79031996
0.79429853
0.79837215
0.80118956
0.80190875
0.8011158
0.7979219
0.79202542
0.78616815
0.781276
0.77645198
0.77331669
0.77151956
0.76910365
0.76866076
0.77101137
0.77467934
0.7803926
0.78702331
0.79139791
0.79333654
0.79365828
0.79228298
0.79066657
0.7898977
0.78771369
0.78189658
0.77305388
0.7625535
0.75378123
0.75242039
0.75911099
0.76883202
0.7771319
0.77907481
0.77261712
0.76508863
0.76364557
0.77055908
0.78520559
0.80066906
0.80759643
0.80339766
0.7917828
0.77923692
0.77368875
0.77916506
0.79175655
0.80423531
0.81123356
0.80978897
0.80205229
0.79552484
0.79484791
0.79940464
0.80740376
0.813525
0.81240449
0.8067233
0.80025026
0.79513257
0.79417422
0.79599101
0.79602081
0.79310079
0.78812204
0.78171841
0.77595463
0.7722554
0.769036
0.76530404
0.76248789
0.76089943
0.76042216
0.76226948
0.76455363
0.76386792
0.76078676
0.75564982
0.74840685
0.74373177
0.74377163
0.74732329
0.75465908
0.76367165
0.77036593
0.77426311
0.77606094
0.77551235
0.77403281
0.77312626
0.77192011
0.77017682
0.76941542
0.76953669
0.77019808
0.77303683
0.77750456
0.78180489
0.78712098
0.79253371
0.79484461
0.79482991
0.79198379
0.78521811
0.77759265
0.77118859
0.76547221
0.76131183
0.75910626
0.75806994
0.75975942
0.76626914
0.77618763
0.78634951
0.79374955
0.79440459
0.78694377
0.77560759
0.76441011
0.75531776
0.7509081
0.74946202
0.746462
0.74253448
0.7383432
0.73418967
0.73350161
0.73722146
0.74275032
0.74883312
0.75413109
0.7566186
0.75726262
0.75858659
0.76126412
0.76579994
0.77295414
0.78065449
0.78634467
0.79026358
0.79170438
0.78971291
0.78696623
0.7845342
0.78142469
0.7802299
0.78109202
0.78186549
0.78317002
0.78434205
0.78324417
0.78073825
0.77804749
0.77478642
0.77185223
0.77036261
0.76915023
0.76743753
0.7660997
0.76439463
0.76150185
0.75922882
0.75767616
0.7556955
0.75519621
0.75594519
0.75530949
0.75466891
0.75375229
0.75097786
0.74849115
0.74731567
0.7460858
0.7452886
0.74495553
0.74355381
0.74182318
0.74174246
0.74329796
0.74647134
0.75210186
0.75882077
0.76520898
0.77266586
0.78085978
0.78804849
0.79534186
0.80196958
0.80558652
0.80849955
0.81143733
0.81321141
0.81523932
0.81734317
0.81755137
0.81666789
0.81581824
0.81458806
0.81382132
0.81444909
0.8151457
0.81512033
0.81530525
0.81515623
0.81405383
0.81364622
0.81348475
0.81168414
0.80949997
0.80673042
0.80280692
0.79869057
0.79383007
0.78835021
0.78524624
0.78553164
0.78703527
0.78672342
0.78106482
0.77017237
0.76055435
0.75825152
0.76199239
0.76401617
0.75575185
0.73672637
0.71973145
0.72129823
0.74392746
0.77054388
0.77705821
0.75315312
0.7185854
0.71426529
0.76400028
0.84471606
