0.7665081
0.79338972
0.84249228
0.88048357
0.8905852
0.87840348
0.86334777
0.8632714
0.88388356
0.91631525
0.94437362
0.95864099
0.95923644
0.95300263
0.94773621
0.94829405
0.95370181
0.95843485
0.95987535
0.95759461
0.95237042
0.94526057
0.9379318
0.93081847
0.9223112
0.91306681
0.90344995
0.89289343
0.88064282
0.8676001
0.85496665
0.8423965
0.83313288
0.82783772
0.82526091
0.82458931
0.82584359
0.82803153
0.82867125
0.82977657
0.83236721
0.83715393
0.84614868
0.86159569
0.8828577
0.90527859
0.92688303
0.94375666
0.95244774
0.95332269
0.95021591
0.94658222
0.94293515
0.94241613
0.94431399
0.94586154
0.94576188
0.94470554
0.94262984
0.93725896
0.93036608
0.92161562
0.91006055
0.89687992
0.88512278
0.87629716
0.86861496
0.8629138
0.857464
0.85002883
0.84087145
0.83263853
0.827044
0.82293131
0.82181572
0.82295062
0.82532659
0.83050685
0.84203334
0.86146355
0.88588601
0.91355856
0.93930857
0.9576735
0.96722553
0.97080387
0.97171283
0.970769
0.97133661
0.97298751000000006
0.97358507
0.97293361
0.97296927
0.97437727
0.97454132
0.9736873
0.96945195
0.9594341
0.94466056
0.92920097
0.91601548
0.90432718
0.89535782
0.88736729
0.87842351
0.86975946
0.86516449
0.86668418
0.87186631
0.87925583
0.88444418
0.88364721
0.87775397
0.87201811
0.87149619
0.87722555
0.89032814
0.90680144
0.92070336
0.92914456
0.93340098
0.93592806
0.9375692
0.94182662
0.94778882
0.9519004
0.95215523
0.94946948
0.9456536
0.94157536
0.94177056
0.94634434
0.95142719
0.9527356
0.94769364
0.93508291
0.91511929
0.89486686
0.87952558
0.87070432
0.86737989
0.86667506
0.86400086
0.85501233
0.84287769
0.83167744
0.82487466
0.82499247
0.83226057
0.84310611
0.85145184
0.8567456
0.85907894
0.85943661
0.86047894
0.86494202
0.87263845
0.87993571
0.88725928
0.89371576
0.89838795
0.90253899
0.90888641
0.91826189
0.92814928
0.93917883
0.94906857
0.95429613
0.95341733
0.94765166
0.93838953
0.92566282
0.91366218
0.90338115
0.89322034
0.88185268000000006
0.86944598
0.85629555
0.84228602
0.83221782
0.82843745
0.83039346
0.83647789
0.84496349
0.85336832
0.85903436
0.86531327
0.87480589
0.88842635
0.90618172
0.92685768
0.94676
0.96057187
0.96875635
0.97202873
0.9714335
0.96939294
0.96861274
0.96927683
0.96851929
0.96766417
0.96664223
0.9650057
0.96387482
0.96503359
0.96774896
0.96783824
0.96492849
0.95731489
0.94395086
0.92702695
0.9111247
0.89919289
0.89035476
0.88555256
0.88255474
0.87835974000000006
0.87256552
0.86744833
0.86465167
0.86303105
0.86377751
0.86533353
0.86561943
0.86538331
0.8679923
0.87579469
0.88754088
0.90363379
0.92059267
0.93373518
0.94133527
0.94503338
0.94662682
0.94579895
0.94562163
0.94617723
0.94629627
0.94659398
0.94906108
0.95359185
0.9563242
0.95634236
0.9508231
0.93788864
0.91990954
0.90244667
0.88943499
0.88010667
0.87456985
0.86917485
0.86005695
0.8474415
0.83566127
0.82891026
0.82781749
0.83370064
0.84319772
0.85124523
0.85564376
0.85808028
0.86120412
0.86592737
0.87546993
0.88884509
0.90236316
0.91338892
0.92141962
0.92612136
0.92603733
0.92434574
0.92200003
0.91855176
0.91476536
0.91269808
0.9130514
0.91391526
0.91699249
0.92107003
0.92323897
0.92191476000000006
0.91743862
0.90997789
0.89862904
0.88724616
0.87748541
0.86899581
0.86150121
0.85526509
0.84950939
0.84226201
0.83630439
0.8329139
0.83187176
0.83318067
0.83722899
0.84324873
0.84923902
0.85782136
0.86995726
0.88488061
0.9017083
0.91938086
0.93526564
0.94537607
0.9513755
0.95432447
0.95483016
0.95447286
0.95515166
0.95663345
0.95616764
0.95538572
0.95438775
0.95246266
0.9500294
0.9481872
0.94613766
0.94057368
0.93256932
0.92191684
0.90832324
0.89357464
0.88100542
0.87229235
0.86590215
0.86262312
0.86011899
0.85475027
0.84499345
0.83241478
0.81969701
0.8090888
0.8066261
0.81479848
0.8322472
0.85593301
0.88205872
0.90548687
0.92055498
0.92816657
0.92969215
0.92699241
0.92348691
0.92274796
0.92534923
0.92809806
0.93140607
0.93393706
0.93427136
0.93331995
0.9334708
0.93500571
0.93459081
0.93208442
0.92531555
0.91237675
0.89472839
0.8767383
0.86173575
0.84963029
0.84234923
0.83839431
0.83506495
0.83184069
0.83052847
0.83212845
0.83492064
0.8396206
0.84443885
0.84720747
0.84855801
0.85179258
0.85938059
0.87048971
0.88602955
0.90330316
0.91841206
0.9299886
0.93933357
0.94717058
0.95157571
0.95400213
0.95373404
0.95001964
0.94507395
0.94322437
0.94651598
0.95211027
0.95861321
0.96140308
0.95612138
0.94284758
0.92590354
0.90938909
0.89393152
0.88157895
0.87058341
0.85827547
0.8449885
0.83422327
0.82882303
0.82799262
0.8319935
0.83710743
0.83861232
0.83524299
0.83013209
0.82766912
0.83038412
0.84260699
0.86337835
0.88766008
0.91041038
0.92865889
0.94060084
0.94497259
0.94646282
0.94781016
0.94936665
0.95106756
0.95291191
0.9536191
0.95065735
0.94678185
0.94286461
0.93781506
0.93067263
0.92123667
0.90897853
0.89325607
0.87936876
0.87073013
0.86769326
0.86868137
0.87092692
0.87043266
0.8636985
0.85456036
0.84754644
0.84615875
0.85252309
0.86630067
0.88338165
0.89727294
0.90688413
0.91185286
0.91281471
0.91230783
0.91341388
0.91683092
0.92009832
0.92449115
0.92930737
0.93302824
0.93565263
0.93834868
0.94078615
0.94031734
0.93868483
0.93602566
0.93196869
0.92773034
0.92530205
0.92426877
0.92076756
0.91442169
0.90353448
0.88729557
0.86839308
0.85200769
0.84157527
0.83624071
0.8362244
0.83811384
0.83784425
0.83465716
0.83142769
0.83130302
0.83498018
0.84493149
0.85943478
0.87452917
0.88783028
0.89934776
0.90923253
0.91619314
0.92255397
0.92788402
0.9302389
0.92923389
0.92643405
0.92299096
0.91827897
0.91552523
0.91510231
0.91539343
0.91547128
0.91541766
0.91417899
0.90888502
0.90138946
0.89204815
0.88057688
0.86818583
0.85723538
0.84841082
0.83967561
0.83249686
0.82633238
0.81988498
0.81351374
0.80914226
0.80760936
0.80743334
0.81033672
0.81565148
0.82146001
0.82717957
0.83370143
0.84118331
0.84805183
0.85648483
0.86631786
0.87595516
0.88493605
0.89404233
0.90313133
0.91023815
0.91754792
0.92497531
0.93097141
0.935047
0.93805037
0.94003568
0.93940667
0.93888111
0.93880348
0.93766413
0.93442878
0.92901243
0.92060345
0.90740945
0.89282776
0.87907399
0.86714277
0.85808352
0.85259583
0.84906371
0.84361016
0.83663864
0.82806812
0.81828292
0.80971777
0.80587675
0.80838318
0.81571161
0.8284998
0.84450001
0.8601239
0.87343428
0.88454063
0.89349364
0.89907236
0.90419382
0.90934513
0.91324505
0.91543894
0.91671066
0.91718575
0.91561933
0.91503525
0.91590518
0.91657383
0.91563661
0.91238272
0.90537631
0.89251528
0.87701425
0.86101949
0.84568379
0.83245815
0.82239045
0.81404679
0.80357501
0.79137743
0.77758941
0.76333478
0.75216054
0.74841806
0.75364145
0.76508404
0.78158919
0.79984966
0.8167923
0.8323495
0.8484667
0.86512593
0.87820237
0.88624804
0.88649532
0.87806093
0.86508735
0.85499722
0.85256458
0.85595366
0.86257645
0.86539971
0.85804131
0.84042091
0.81899971
0.80134748
0.79094946
0.79062726
0.79629156
0.80056828
0.7986853
0.79084716
0.77963832
0.7670309
0.75796172
0.75328572
0.75102095
0.74998482
0.75139691
0.75704418
0.76760944
0.78669102
0.81411671
0.84617347
0.87836263
0.90688164
0.92808109
0.93876018
0.94212695
0.94124211
0.93847829
0.9365168
0.9376038
0.94127752
0.94418824
0.94709881
0.94951604
0.9505274
0.95066969
0.95145332
0.95266968
0.95160121
0.94942144
0.94589016
0.94025783
0.93321414
0.92654292
0.92028523
0.91173942
0.90177471
0.89005209
0.87642243
0.86288617
0.85282069
0.84751868
0.84450103
0.8432997
0.84148156
0.83702734
0.83140031
0.82901512
0.83330868
0.84387652
0.86130919
0.88167771
0.89925859
0.91094494
0.91722712
0.91960893
0.91847255
0.917954
0.91887851
0.91981521
0.92022263
0.92105046
0.92252551
0.9229549
0.92450727
0.92644233
0.92612454
0.92198958
0.91423341
0.90300592
0.88770134
0.87271985
0.86037504
0.85094278
0.84448946
0.84104404
0.83907618
0.83557959
0.8322716
0.82968236
0.82743525
0.82596939
0.82651487
0.82931383
0.83316262
0.84096628
0.85328871
0.86825882
0.88360447
0.89735873
0.90707368
0.91021183
0.910506
0.91065787
0.91150404
0.91326809
0.91573435
0.91714143
0.914742
0.91173156
0.91006402
0.90972886
0.91001078
0.90970829
0.9062027
0.89635391
0.88355246
0.87074107
0.85955904
0.85105964
0.84549706
0.84119651
0.83532132
0.83049622
0.82846428
0.82943551
0.83303727
0.83837024
0.84320644
0.84482715
0.84641682
0.85053873
0.85812085
0.86923456
0.88303496
0.89694262
0.90745843
0.916898
0.92646888
0.93553145
0.94297015
0.94773863
0.94833263
0.94352236
0.93847528
0.93656349
0.93764662
0.93924054
0.93784753
0.92973711
0.91293981
0.89386196
0.87857631
0.86985477
0.86693942
0.86623472
0.86240287
0.85140637
0.83782836
0.82732921
0.82358856
0.82720935
0.83534075
0.84225262
0.84243422
0.83861208
0.835396
0.83695647
0.84570189
0.86065079
0.87668604000000006
0.88692028999999994
0.89118394
0.89104361
0.88923666
0.88954525
0.89467984
0.90346763
0.9110165
0.91675213
0.91938453
0.91819968
0.91486637
0.91231082
0.91142097
0.90978045
0.90798887
0.90408017
0.89535174
0.88149746
0.86504112
0.84877248
0.83399593
0.82512396
0.82270852
0.8239381
0.82541206
0.82453354
0.8188843
0.80649096
0.79155532
0.77795103
0.76870496
0.76682409
0.77446546
0.79085289
0.81202928
0.83707435
0.86288004
0.88534438
0.90193925
0.91201411
0.9151509
0.91061377
0.90311576
0.89586109
0.89020896
0.88721105
0.88750935
0.88958906
0.88987477
0.8894865
0.88813052
0.88461878
0.87890167
0.87211756
0.86459541
0.85525257
0.84735321
0.8418266
0.83732837
0.8322827
0.82572655
0.81641358
0.80304549
0.78996781
0.7803729
0.77544265
0.77523286
0.7788333
0.78362482
0.7862374
0.78914296
0.79492787
0.80548836
0.82239716
0.84568249
0.87177994
0.89400184
0.91025984
0.91833865
0.9172753
0.90943566
0.89971154
0.89198924
0.88714899
0.88839920000000006
0.89478556
0.90235611
0.90754428
0.90863046
0.904476
0.89400399
0.88182836
0.87091363
0.8620615
0.85537795
0.85051992
0.845333
0.83632494
0.82550221
0.8149092
0.80667253
0.8035911
0.80766796
0.81714596
0.82623942
0.83273651
0.83482777
0.83324321
0.83282387
0.84009129
0.85778997
0.88191028
0.90807342
0.92863264
0.93742271
0.93468424
0.92670157
0.9205534
0.91947312
0.92623102
0.93728708
0.94616806
0.94885097
0.94552768
0.93825408
0.92838768
0.92017215
0.91377648
0.90661111
0.89701992
0.88562704
0.87357617
0.86119907
0.85262772
0.84908822
0.84937239
0.85220897
0.85688398
0.86179161
0.86406105
0.86530363
0.86585552
0.86520677
0.86389765
0.86340407
0.86390849
0.86352061
0.86421911
0.86584867
0.86664502
0.86550244
0.86209805
0.85500114
0.84154204
0.82481784
0.80757513
0.79256756
0.78381492
0.78512375
0.79652743
0.81312245
0.83220098
0.84849836
0.85687844
0.85592606
0.84811951
0.83655394
0.82275839
0.81180145
0.80571633
0.80439538
0.80802737
0.81718056
0.83036241
0.84322023
0.85489801
0.86324089
0.86671749
0.86705526
0.86852583
0.87425222
0.88382624
0.89825027
0.91452707
0.92786691
0.93557213
0.93805588
0.93657534
0.93143741
0.92701081
0.92480874
0.92400931
0.92400085
0.92522838
0.92730415
0.92817912
0.92997583
0.932759
0.93488341
0.9352564
0.93384194
0.9298356
0.921156
0.91057328
0.89930144
0.88720915
0.87466355
0.86284362
0.85198052
0.84091869
0.83277555
0.82862142
0.82755592
0.82868518
0.83162007
0.83537354
0.83852512
0.8448183
0.85638472
0.87310418
0.89386105
0.91646861
0.93680984
0.94982323
0.95654742
0.95811989
0.95576587
0.95185124
0.94886532
0.94711907
0.94447506
0.9429344
0.94268374
0.94269154
0.94258266
0.94228906
0.94007498
0.93249479
0.92114356
0.90690006
0.89064939
0.87482902
0.8624197
0.85407221
0.84721366
0.84200324
0.83638579
0.82783325
0.81611822999999994
0.80344882
0.7921622
0.78325204
0.78050137
0.78417538
0.79161018
0.8000022
0.80752104
0.81267053
0.81416876
0.81624063
0.82117759
0.82871142
0.83775422
0.84687274
0.85356185
0.85495803
0.85424376
0.85349608
0.85302895
0.8527004
0.85199783
0.84911806
0.84169539
0.83328462
0.82624817
0.82099499
0.81698311
0.81274272
0.80528072
0.7914028
0.77423776
0.7570575
0.74239375
0.73226284
0.72726959
0.72553943
0.72385548
0.72397074
0.72760247
0.73608894
0.75073943
0.7716026
0.79570069
0.81741965
0.83520977
0.84721751
0.85225014
0.85167762
0.84893916
0.84660518
0.84475919
0.84636321
0.8508668
0.85511305
0.85636115
0.85360832
0.8465042
0.83478355
0.82333366
0.81453535
0.80748255
0.7998301
0.7891581
0.77294226
0.74961279
0.72463495
0.70330375999999994
0.68891422
0.68262728
0.68315911
0.68617344
0.68608892
0.68361766
0.68124651
0.68276085
0.69291835
0.71534755
0.74942171
0.78963119
0.8319884
0.87022459
0.89801529
0.91232736
0.91406289
0.90606874
0.89159914
0.87855197
0.87171427
0.87193249
0.87789201
0.88710613
0.89552635
0.89848458
0.89749548
0.89387717
0.88825496
0.88161157
0.87513198
0.8684439
0.85954872
0.85099402
0.84382682
0.83745539
0.83106026
0.82416563
0.81549064
0.80311432
0.79016443
0.77901489
0.77063357
0.76552269
0.7639777
0.76498136
0.76644977
0.77109512
0.78050872
0.79447538
0.81215335
0.83197574
0.85049636
0.86311151
0.87127584
0.87640541
0.87976699
0.88344832
0.88947761
0.89735546
0.90489809
0.91126813
0.91438053
0.91326965
0.90999461
0.90718177
0.90551636
0.90294389
0.89767999
0.88721084
0.87222506
0.85840875
0.85185933
0.85362722
0.8576764
0.85592943
0.84208739
0.81921225
0.80093234
0.80174933
0.82489723
0.85711016
0.87720889
0.86914964
0.83794322
0.81204455
0.82492736
0.88823152
0.97454012
