1.0648846
1.0887657
1.150667
1.2074119
1.2286932
1.2117248
1.1764727
1.1480976
1.1427722
1.158605
1.1804385
1.1921525
1.1870025
1.168319
1.1438546
1.1218173
1.1055321
1.0935429
1.0824825
1.0716806
1.0618251
1.0528598
1.0443693
1.0356662
1.0259244
1.0141299
1.0029612
0.9947885
0.98966337
0.98548956
0.98105704
0.97562295
0.96806183
0.96259807
0.96191921
0.96550712
0.96925318
0.9704556
0.96433219
0.94673674
0.91952172
0.88838052
0.85928004
0.83490912
0.81945283
0.81125427
0.80567746
0.79886221
0.79033626
0.78040485
0.76974413
0.76275888
0.76273203
0.77135406
0.78889193
0.81775504
0.85723819
0.90392338
0.95456252
1.0059446
1.0539845
1.0936661
1.1261782
1.1525322
1.1731264
1.1877758
1.1989138
1.2069143
1.2102002
1.2100445
1.2077135
1.2024869
1.190318
1.1706199
1.140767
1.0982561
1.0439507
0.98317934
0.92177826
0.86392514
0.81558812
0.77924336
0.7537522
0.7354397
0.72237727
0.7118462
0.70170327
0.69346073
0.69088745
0.69822515
0.71835867
0.75627638
0.81315611
0.88657101
0.97171333
1.0629838
1.152467
1.2307774
1.2934465
1.3379695
1.3634517
1.3699453
1.3633891
1.3483132
1.3276627
1.3054907
1.28573
1.2690558
1.2517799
1.233655
1.2121032
1.1840769
1.1477419
1.1053271
1.0578441
1.0047962
0.94830651
0.89151903
0.83823652
0.7919518
0.75857197
0.73906865
0.72870372
0.71967141
0.70542714
0.68362609
0.65894924
0.64589284
0.66023241
0.71167462
0.79855924
0.90963643
1.0249366
1.1235437
1.1941697
1.2361007
1.255888
1.2607158
1.2616821
1.2624885
1.261434
1.2557777
1.2460362
1.2325103
1.2144058
1.1944319
1.1732581
1.1490249
1.1181631
1.0820427
1.0412903
0.99655323
0.95072867
0.90744916
0.8679993
0.8306325
0.79636448
0.76523519
0.73768547
0.71514058
0.70075034
0.69484924
0.69438018
0.6968684
0.70137427
0.71050133
0.730451
0.77221784
0.84196628
0.93621022
1.0424686
1.143289
1.2207151
1.2628244
1.2737017
1.2655153
1.2521347
1.2425857
1.2415685
1.2446048
1.243025
1.2329999
1.2158179
1.1947978
1.1706023
1.1456634
1.1162827
1.0764422
1.0229599
0.95963767
0.89369742
0.8329675
0.7860822
0.75618079
0.73977103
0.7286815
0.71749679
0.7033046
0.68822959
0.680586
0.69109671
0.7267695
0.78666097
0.86524307
0.95072204
1.0297639
1.0926839
1.1379859
1.1681344
1.1863038
1.1980224
1.2061513
1.2099926
1.2060947
1.1969167
1.1839118
1.1678959
1.1503866
1.1332931
1.1154291
1.0927494
1.0659812
1.0358178
1.0030315
0.96829511
0.93519294
0.90455372
0.87503555
0.84660774
0.81975294
0.79457513
0.77010982
0.74895851
0.73196653
0.71891302
0.70979938
0.70659637
0.71153892
0.72701491
0.75799586
0.80762668
0.87493848
0.95371687
1.036975
1.1143987
1.1758186
1.2171341
1.2405802
1.2509984
1.2521292
1.2513359
1.2512869
1.2507141
1.2465565
1.2383442
1.2238592
1.1993168
1.1644657
1.1203459
1.0687937
1.0117976
0.95663709
0.90750005
0.86474733
0.82663691
0.79162203
0.75841666
0.72735039
0.70389681
0.69190775
0.69040368
0.69304989
0.69370139
0.68854629999999994
0.6810179
0.68438531
0.71513999
0.78326373
0.88425115
1.0030816
1.1152356
1.1979701
1.2411035
1.2513461
1.2441076
1.2342205
1.2333279
1.2425858
1.2552286
1.2623852
1.2628022
1.2569981
1.2451763
1.2273355
1.2017871
1.1649797
1.1140911
1.0554957
0.99693264
0.94423865
0.89878455
0.85985076
0.8236293
0.7872714
0.75389447
0.72873049
0.71414451
0.70609502
0.6990842
0.68673039
0.66819866000000006
0.65222373
0.65430043
0.68697911
0.75146835
0.83848938
0.928536
1.0007239000000001
1.0423151
1.0567571
1.0559907
1.0532637
1.0596228
1.0780728
1.1032347
1.1249646
1.14124
1.151981
1.1588752
1.163747
1.1675908
1.1663684
1.153066
1.1256526
1.0847457
1.0332984
0.97532469
0.91833941
0.86722809
0.82441795
0.79179383
0.76988413
0.75609051
0.74476167
0.73291297
0.71848039
0.70264007
0.69083675
0.69285863
0.71683387
0.7654958
0.83747112
0.92551917
1.0175737
1.0990437
1.1624036
1.2030865
1.2207691
1.2202506
1.2095728
1.1945765
1.176592
1.1582977
1.1394172
1.1179977
1.0917707
1.0625968
1.030651
0.99442491
0.95469746
0.91315218
0.87126152
0.82936786
0.79267404
0.76330146
0.74053068
0.72180223
0.70497211
0.68749878
0.66867313
0.65447279
0.65432672
0.67808765
0.73171186
0.81611478
0.92127929
1.0280733
1.1154766
1.1675236
1.1782876
1.1534233
1.1131271
1.0791828
1.0666823
1.0791511
1.1113924
1.1492166
1.1768799
1.188152
1.1850953
1.174167
1.1603321
1.1491886
1.1386345
1.1218257
1.0931755
1.0523303
1.0021714
0.94693056
0.89443185
0.84933128
0.81207454
0.77990246
0.75164788
0.72591418
0.70227468
0.68311105
0.67105301
0.66659418
0.66726073
0.67355365
0.68686557
0.7115499
0.75514265
0.82539254
0.92255029
1.0358273
1.1491319
1.2424777
1.2995483
1.3138982
1.2961212
1.2632053
1.2310029
1.2101014
1.2022878
1.2004073
1.1930782
1.1769844
1.1522441
1.1213548
1.0867234
1.051071
1.0129313
0.96898861
0.92050029
0.87119132
0.82474518
0.78222729
0.74605557
0.71587919
0.69116805
0.67352054
0.66580812
0.66763666
0.6737011
0.67922609
0.68146121
0.68428851
0.69931421
0.74339533
0.82650406
0.9437487
1.0763674
1.1964019
1.2774807
1.3048388
1.2875422
1.2462669
1.2039273
1.1763076
1.1680514
1.1708925
1.170974
1.1622172
1.1452478
1.1245563
1.1030861
1.0835415
1.0620272
1.0321409
0.9919282
0.94519246
0.89755177
0.85228317
0.81328421
0.78020498
0.75115019
0.72547613
0.70607517
0.69431793
0.68789467
0.68349461
0.67781464
0.67089745
0.66795489
0.6812529
0.72036879
0.78630418
0.87013332
0.95580433
1.0255071
1.0671633
1.0842735
1.0886997
1.0941371
1.1088754
1.1361435
1.1687151
1.1940847
1.2046729
1.1998111
1.1836807
1.1606338
1.1389416
1.1202079
1.1005082
1.0741814
1.0389994
0.99482559
0.9438927
0.89361742
0.85012575
0.81505324
0.78486217
0.75683793
0.72833298
0.69997702
0.67724936
0.6664702
0.66856333
0.67637134
0.68158592
0.6780963
0.66948728
0.6715913
0.70813226
0.79568817
0.93175928
1.0954431
1.2518386
1.3657573
1.415648
1.4079106
1.3654709
1.3159204
1.2801226
1.2652088
1.2626533
1.2560569
1.2371502
1.2054003
1.1667328
1.1281623
1.0959121
1.0676424
1.0350183
0.99208006
0.93821241
0.87812328
0.81884948
0.77111222
0.73947466
0.72140178
0.70964688
0.69752035
0.68113042
0.66255018
0.65323274
0.66794386
0.71835816
0.80696883
0.92777295
1.0634367
1.1905724
1.2893455
1.3493402
1.3700632
1.3580765
1.3295935
1.2980026
1.2709057
1.2501107
1.2356683
1.2234638
1.2080274
1.1889727
1.1676821
1.1450839
1.1196975
1.0931684
1.0638888
1.0293472
0.98950467
0.94754081
0.906385
0.86718241
0.83272556
0.80333484
0.77796265
0.75597219
0.74065431
0.73567195
0.74402883
0.76856753
0.80945211
0.86278041
0.92059869
0.97715022
1.0261045
1.0624846
1.084948
1.0971369
1.1029457
1.104676
1.1072052
1.1125247
1.1196857
1.1256754
1.1311037
1.1342039
1.1316356
1.1218904
1.1050844
1.081442
1.0507942
1.0182119
0.98600578
0.95302368
0.9158225
0.87339722
0.82617727
0.77795983
0.73794524
0.71377196
0.70573609
0.70473874
0.70032866
0.6838889
0.65672285
0.63337637
0.6358705
0.68032365
0.76606963
0.87663764
0.98270011
1.0555599
1.080466
1.0649409
1.0297485
0.99761899
0.98524003
0.99575873
1.0196494
1.0413821
1.0541354
1.0564911
1.052027
1.0461530000000001
1.0432543
1.0415372
1.0346176
1.0197596
0.99652173
0.96678949
0.9331926
0.90136646
0.87298686
0.84613237
0.81881137
0.7905157
0.7618118
0.73396836
0.71210128
0.6988697
0.6932066
0.69110154
0.6898216
0.68844571
0.69000688
0.70331385
0.7368077
0.79230824
0.86114826
0.93023526
0.98293236
1.0078459
1.0061654
0.99128499
0.97938036
0.97999439
0.99654712
1.0216659
1.0427105
1.0493476
1.0422626
1.0274628
1.0120061
1.0022428
0.99917581
0.99756466
0.98828487
0.96897226
0.93931745
0.90169048
0.8603813
0.82121133
0.78738146
0.75934437
0.73890702
0.72636862
0.71978367
0.71487419
0.70938312
0.70102963
0.6898527
0.68107626
0.68389863
0.70733022
0.75597008
0.83151197
0.92717129
1.0292397
1.1213738
1.1914016
1.2314746
1.240029
1.225345
1.1997829
1.1742545
1.1536424
1.1416007
1.1350586
1.1278681
1.1158939
1.0992522
1.0790001
1.0550648
1.0299832
1.003698
0.97436608
0.94013099
0.90336607
0.86648269
0.8314432
0.80115368
0.77730916
0.75916784
0.74355169
0.73067196
0.72028752
0.71284708
0.71021925
0.71609259
0.73281874
0.76052354
0.80005601
0.85023286
0.90753768
0.96634053
1.0240554
1.0765737
1.1191489
1.1499465
1.1692977
1.1771963
1.1723262
1.1584643
1.1377116
1.1109418
1.0787677
1.0444342
1.0094673
0.97382274
0.93992051
0.90938764
0.88177552
0.85424998
0.82742194
0.80069671
0.77394095
0.7491343
0.72964929
0.71658745
0.7076544
0.70141691
0.69553146
0.68903006
0.68408899
0.68811881
0.70829118
0.7485196
0.80908049
0.88441663
0.96354332
1.0323457
1.0828225
1.1103976
1.1156743
1.1048935
1.0889453
1.0763226
1.0700546
1.0719153
1.0787268
1.0838723
1.0797684
1.0651066
1.0397444
1.0050182
0.965206
0.92553959
0.8890384
0.85551178
0.8266875
0.80159531
0.77770909
0.75256551
0.72666792
0.70133987
0.67879647
0.66353041
0.65809397
0.66061518
0.66465565
0.66587654
0.66234576
0.65826984
0.66501738
0.69659872
0.76040161
0.85064974
0.95358938
1.0484662
1.1163317
1.147979
1.150434
1.1376075
1.1228406
1.1154238
1.1158518
1.1162866
1.1047977
1.0782644
1.0376651
0.98807503
0.93638332
0.8891718
0.84740458
0.80729508
0.76764877
0.72928762
0.69543218
0.67001429
0.65834486
0.6598215
0.66776051
0.67371508
0.67179586
0.66181592
0.65071148
0.65419236
0.68675913
0.75476223
0.8523216
0.96375980000000006
1.066794
1.1408477
1.1779756
1.1832092
1.1699967
1.1520359
1.1428295
1.1452818
1.1535906
1.1597067
1.1585149
1.147588
1.1268204
1.1027136
1.0806445
1.0628493
1.0477954
1.0343893
1.0179772
0.9924279
0.95540727
0.90876535
0.85725783
0.80624088
0.76443746
0.73591502
0.71927842
0.70922137
0.70053704000000006
0.68937623
0.67593357
0.66820025
0.67722327
0.71240854
0.77681704
0.86753776
0.97196509
1.0712949
1.1487449
1.1942435
1.2059214
1.18895
1.159574
1.1328198
1.1178371
1.1161047
1.1253983
1.1384576
1.1472951
1.1506733
1.1508201
1.1495466
1.1444998
1.1344463
1.1142862
1.0793298
1.0302338
0.97388335
0.91781443
0.86616577
0.82264552
0.78690409
0.75701887
0.73196435
0.71482801
0.70683952
0.70531006
0.70616383
0.70623031
0.70684869
0.71554848
0.74810827
0.81646487
0.92097748
1.0475827
1.1720339
1.2672209
1.3147522
1.3162895
1.2879369
1.2513597
1.222939
1.2116953
1.2131928
1.2157244
1.2108242
1.197311
1.1787126
1.1584502
1.1424411
1.1303943
1.117424
1.0980105
1.0719682
1.0405567
1.0053434
0.97012678
0.93678795
0.90392471
0.86769193
0.82889177
0.78965206
0.75407627
0.72767273
0.71455533
0.71263593
0.71312522
0.70765958
0.69066131
0.66440339
0.6405722
0.63862454
0.67372074
0.74854593
0.85323779
0.96646427
1.0633985
1.1250116
1.1513827
1.1532019
1.1462803
1.144643
1.1562605
1.1787137
1.2028859
1.2229361
1.2350465
1.236997
1.2264122
1.2037347
1.1673736
1.1165599
1.0555794
0.99248046
0.93464686
0.88522604
0.84624208
0.81482335
0.78670749
0.75972766
0.73632554
0.71911002
0.70853817
0.7044305
0.70491533
0.70815558
0.71400092
0.72829014
0.75618888
0.79905315
0.85364767
0.91324274
0.96806608
1.0082486
1.0319842
1.0409562
1.0384966
1.0273709
1.0116164
0.99149809
0.96535036
0.93493705
0.90393124
0.87545777
0.84943916
0.82822045
0.80948444
0.78928871
0.76560503
0.74056201
0.71683532
0.69635973
0.68264368
0.67641224
0.67551772
0.67626244
0.67842859
0.68249022
0.69035517
0.70631181
0.73475536
0.77679314
0.82845377
0.88488771
0.93792078
0.97886455000000006
1.0018898
1.0081622
1.0024214
0.99075559
0.98190881
0.98175841
0.9903866
1.0015861
1.0103303
1.0099643
0.99612451
0.97023032
0.93907796
0.90949743
0.88478665
0.86750244
0.85544794
0.84369513
0.82750465
0.80709239
0.78383345
0.75928611
0.73617138
0.71647636
0.70051674
0.68681942
0.67695703
0.67078896
0.66699728
0.66470185
0.66611909
0.67590871
0.700814
0.74990091
0.82650742
0.92328877
1.0215134
1.0994217
1.1369933
1.1257024
1.0750843
1.0082341
0.95028262
0.91682858
0.91266268
0.92758987
0.94440248
0.94897673
0.93835328
0.91698919
0.8921224
0.87144037
0.85719183
0.8458404
0.83097802
0.81140125
0.78769458
0.76203766
0.73755977
0.71690101
0.69992991
0.68451512
0.67138829
0.66128516
0.65442649
0.64996655
0.64811196
0.64762077
0.64704806
0.64769771
0.65222751
0.6625292
0.67749127
0.69767309
0.72024667
0.74114327
0.75804684
0.77248119
0.78612281
0.79961238
0.81589579
0.8355687
0.85594031
0.87145054
0.87976772
0.87816571
0.86521564
0.84351485
0.81832795
0.79390254
0.77119394
0.75252418
0.73699571
0.72215773
0.70603679
0.69008816
0.6758584
0.66423287
0.65719719
0.65519067
0.65644105
0.65811066
0.65892357
0.65856986
0.65955258
0.66772931
0.68925937
0.72683555
0.77776504
0.83583974
0.89209809
0.93952553
0.97638535
1.0059035
1.0308664
1.0504807
1.0611502
1.0580827
1.0405241
1.0148685
0.99420259
0.9873866
0.992781
0.99807967
0.98697984
0.95010175
0.8944541
0.8433729
0.82052198
0.83250157
0.85913577
0.86008452
