0.8442477
0.85589324
0.90435903
0.9672889
1.0189831
1.0462594
1.0510231
1.0465907
1.047077
1.0622109
1.0912003
1.1249885
1.1509374
1.1624694
1.1599084
1.1489951
1.1353381
1.1235444
1.113747
1.1026719
1.0853842
1.0607956
1.0312
1.0009481
0.97318517
0.95035322
0.93251549
0.9179579
0.90387821
0.88990454
0.8776421
0.86975493
0.86798526
0.87401778
0.88825395
0.90952714
0.93437604
0.96136711
0.98891913
1.0157125
1.0398818
1.0626212
1.0850923
1.1076645
1.128626
1.1480325
1.1653297
1.179384
1.1880404
1.1922914
1.1936014
1.19286
1.1890645
1.1829013
1.174321
1.1621154
1.1438303
1.1201163
1.092794
1.0636601
1.0334793
1.0048291
0.97985962
0.95898413
0.9406541
0.92454879
0.91048968
0.89749379
0.88378723
0.86964184
0.85664568
0.84657063
0.84099508
0.84289427
0.85492156
0.87715619
0.9065081
0.93918914
0.97122785
0.9985512
1.0182095
1.0309962
1.0403623
1.0494214
1.0593068
1.0706258
1.0834073
1.0955028
1.1037359
1.107236
1.1081553
1.1085389
1.1095146
1.1122242
1.1175339
1.1230366
1.1240244
1.116639
1.1001763
1.0751348
1.0436967
1.0102592
0.98080837
0.95799717
0.94052252
0.92470393
0.9076056
0.88651859
0.86119433
0.83493396
0.8143173
0.80320699
0.80064197
0.80105658
0.798227
0.78636529
0.76468034
0.73980452
0.7259581
0.7368232
0.78008266
0.85367934
0.94768469
1.0443925
1.1253157
1.1776213
1.200305
1.1992413
1.1841169
1.1637495
1.1461532
1.133098
1.1227544
1.1122199
1.1032074
1.0971152
1.0946809
1.094019
1.09405
1.0904433
1.0790621
1.0577188
1.030983
1.0043296
0.98306097
0.96936855
0.96482045
0.96624935
0.96869015
0.96689583
0.960737
0.95100931
0.93966938
0.92769803
0.91827252
0.91229992
0.91012348
0.91114157
0.91867213
0.93475624
0.96033989
0.99304976
1.031918
1.0731461
1.1126058
1.1454043
1.1726448
1.1949443
1.2133736
1.2265771
1.2367975
1.2432466
1.2447864
1.2386669
1.2275024
1.2122857
1.1936605
1.1695407
1.1414748
1.1093062
1.0738974
1.035961
1.0014688
0.97457359
0.95740717
0.9475304
0.94343919
0.94122661
0.93800773
0.93226182
0.92875743
0.93245319
0.94693482
0.97095282
1.0023207
1.0350187
1.0626922
1.0801372
1.0894123
1.0952079
1.1030989
1.1153231
1.1337938
1.1559461
1.1767933
1.1899353
1.1947556
1.1927735
1.1870527
1.1790532
1.1722092
1.1670123
1.1617128
1.1524423
1.1394814
1.1239154
1.1073612
1.0900406
1.0744129
1.0611329
1.0489761
1.0346602
1.0177276
0.99825153
0.97662784
0.95271363
0.92897898
0.90782141
0.89080797
0.87799539
0.87118867
0.87192732
0.88077029
0.89660849
0.91963865
0.94943222
0.98407745
1.019746
1.0544226
1.0866914
1.1150856
1.1377904
1.1558435
1.1711635
1.1845008
1.1944672
1.2007119
1.202992
1.2002239
1.1909028
1.1765396
1.1604629
1.1453102
1.1319705
1.1215734
1.1144635
1.1086096
1.1003629
1.087851
1.0712782
1.0511455
1.0280109
1.0040241
0.98210794
0.96333444
0.94694792
0.93248761
0.92046261
0.91079592
0.90335478
0.89947747
0.9019551
0.91220897
0.92981596
0.95358198
0.98234031
1.0131453
1.0422049
1.0670257
1.0878664
1.1048675
1.1179075
1.1273764
1.1350289
1.1406041
1.142503
1.1394114
1.132234
1.120884
1.1050403
1.0851844
1.0642199
1.043844
1.025162
1.0092292
0.99846726
0.99266656
0.98958724
0.98589836
0.98008017
0.96985331
0.95394611
0.93286365
0.91071342
0.89052673
0.87399441
0.86103884
0.85242723
0.84701448
0.84371231
0.84228646
0.84600898
0.85709921
0.87630127
0.90172561
0.93207019
0.9631742
0.99030174
1.009073
1.0203611
1.025291
1.0255514
1.0216151
1.0164146
1.0097594
1.0001667
0.98494465
0.96603519
0.94482186
0.92343529
0.90299551
0.88781946
0.87888036
0.87506553
0.87238533
0.87006015
0.86605766
0.85945549
0.8493875
0.83974185
0.83270153
0.82924041
0.82719029
0.82661578
0.82547888
0.82254033
0.81700723
0.81367881
0.81705992
0.83127031
0.85691695
0.89496427
0.94183443
0.9919294
1.0378323
1.0767216
1.1064977
1.1271992
1.1387805
1.1455927
1.1502881
1.1546400000000001
1.1576502
1.1614834
1.1662015
1.1711308
1.173283
1.1733423
1.1707643
1.1650686
1.1543843
1.1410167
1.1265252
1.112085
1.0966157
1.0816354
1.0671602
1.0525207
1.0353892
1.016779
0.99737724
0.9777837
0.95707248
0.93690058
0.91806056
0.90071382
0.88347772
0.86752518
0.85366798
0.84245632
0.8333173
0.82828222
0.82931306
0.83816583
0.85513823
0.88229478
0.91985434
0.96554583
1.0137591
1.0604999
1.1017612
1.1346079
1.1572014
1.1728591
1.1860808
1.2001609
1.2147855
1.2295081
1.2418076
1.2477898
1.2433209
1.2291247
1.2086923999999999
1.1862296
1.1644926
1.1467617
1.1342941
1.125419
1.1161666
1.1046369
1.0904634
1.0737386
1.0543043
1.0337532
1.0137313
0.99433893
0.97419412
0.95340572
0.93341729
0.9158092
0.90197196
0.89459028
0.89638647
0.9079148
0.92716724
0.95177448
0.97949936
1.007497
1.0330138
1.0556705
1.0770483
1.0981315
1.1184792
1.1377071
1.1553833
1.1691525
1.1756572
1.1735178
1.1643771
1.1500634
1.1322454
1.1134886
1.0972201
1.0840312
1.0721095
1.0594699
1.0459726
1.0308228
1.0134197
0.99460162
0.97746219
0.96321622
0.95112442
0.9395555
0.92817775
0.91547547
0.90022496
0.88280392
0.86674364
0.85456569
0.84730288
0.84433585
0.84523818
0.84718304
0.84677809
0.84186485
0.83455441
0.82789798
0.82571938
0.83161652
0.85015905
0.88192492
0.92400912
0.97081102
1.0184812
1.061936
1.0970377
1.1211818
1.1368416
1.1458421
1.1495385
1.147905
1.1434209
1.1364094
1.1268983
1.1146285
1.1031064
1.0939298
1.0872212
1.0805844
1.0736011
1.0638704
1.0495383
1.029482
1.0075246
0.98676398
0.96945748
0.95509078
0.94434427
0.93525874
0.92593037
0.91487838
0.90560591
0.90144319
0.90534084
0.91731818
0.93817382
0.96514088
0.99439096
1.0210966
1.0455553
1.0681726
1.0900648
1.1101952
1.1303615
1.1493273
1.1650145
1.1734062
1.1760218
1.1736379
1.1678824
1.1585048
1.1491819
1.1406062
1.1322999
1.1212214
1.1084447
1.0936608
1.0769385
1.0570878
1.0369674
1.0178294
1.0003598
0.98311736
0.96750736
0.95303409
0.93865122
0.92200118
0.90449424
0.887479
0.8731883
0.86333477
0.86245761
0.87313315
0.89576636
0.92723874
0.96515639
1.0052733
1.0431975
1.0744833
1.0992554
1.1185585
1.1340684
1.1459779
1.156885
1.1675634
1.1771489
1.1823137
1.1829311
1.1788811
1.1702988
1.1564033
1.1397267
1.1220617
1.1037815
1.0828542
1.0596023
1.0343504
1.0076296
0.97959338
0.95349018
0.93210602
0.91617149
0.90320801
0.89134648
0.87831007
0.86215774
0.84182776
0.82033895
0.80197795
0.78975321
0.78343779
0.78189785
0.78254978
0.78227013
0.77899199
0.77571017
0.77893644
0.7955619
0.82969457
0.8829911
0.9523376
1.0292281
1.1017297
1.1604216
1.1999889
1.2187852
1.2182853
1.2045767
1.1856871
1.167499
1.1523359
1.1412158
1.1339006
1.1275717
1.1180669
1.1033468
1.0842186
1.0621448
1.0388094
1.0170599
1.0000247
0.98785682
0.97782414
0.96683326
0.95352093
0.93739009
0.91978014
0.90476087
0.89819222
0.90312182
0.91826808
0.93878855
0.9586191
0.97072318
0.97024129
0.95746262
0.9392658
0.92464622
0.92187038
0.93626608
0.97005085
1.0191119
1.0747654
1.1271679
1.1700567
1.1986516
1.2107599
1.2071361
1.1929646
1.1725053
1.1491021
1.1252871
1.1052326
1.0902637
1.0796781
1.0712838
1.0646733
1.0575908
1.0475836
1.0327293
1.0148218
0.99494613
0.97401445
0.95235331
0.9325754
0.91549915
0.90132333
0.88965198
0.88264063
0.88085873
0.88413024
0.89123882
0.90334308
0.92027336
0.94178563
0.96706261
0.99800805
1.0341737
1.0734115
1.1111372
1.1452012
1.1722237
1.1898961
1.1966328
1.1963971
1.1922984
1.1867506
1.1791732
1.1713963
1.1620193
1.1493227
1.1309681
1.1103018
1.0897766
1.0717204
1.055698
1.0437463
1.0344415
1.0254487
1.0128922
0.99798607
0.98121761
0.96371347
0.94482715
0.92726449
0.91117321
0.896144
0.88026051
0.86584993
0.85461677
0.84879058
0.84902498
0.85848051
0.87747294
0.90448611
0.93503549
0.96748544
0.99920557
1.0284392
1.0529658
1.0754306
1.0974174
1.1196448
1.1396574
1.1576986
1.1718984
1.18025
1.1799558
1.1736264
1.1639119
1.1534477
1.1423847
1.1331154
1.1255088
1.1179926
1.1071586
1.0934339
1.0773738
1.0598403
1.0404053
1.021291
1.0034875
0.98694187
0.96990927
0.95329084
0.93773026
0.92361376
0.91019245
0.8990778
0.89159319
0.88866593
0.89016001
0.89808056
0.91398338
0.93821125
0.96878301
1.0045702
1.0432774
1.0814485
1.1144216
1.1406331
1.1598773
1.1726577
1.1791176
1.1821399
1.1844588
1.1870099
1.1880226
1.1869104
1.1829367
1.174734
1.1604641
1.1415146
1.120694
1.1001592
1.0803105
1.0623141
1.0467255
1.032289
1.0163711
0.99832324
0.97894609
0.95888677
0.93822829
0.91843043
0.90138976
0.88765401
0.8764863
0.8681014
0.86347782
0.86270743
0.86497585
0.87043169
0.88017375
0.89442075
0.91244966
0.93434589
0.96103815
0.99175088
1.0238245
1.0547838
1.0833795
1.107521
1.1250325
1.1357668
1.1422634
1.1461101
1.1475678
1.1467084
1.1444366
1.139576
1.1299821
1.1146206
1.0952814
1.0732826
1.0496967
1.0259368
1.0046767
0.9863091
0.96959646
0.95291734
0.93636184
0.91909014
0.90037214
0.88042171
0.86199291
0.84697186
0.83667704
0.83203796
0.83521197
0.84651917
0.86515847
0.8896325
0.91983524
0.95393053
0.98909434
1.0219357
1.0515558
1.0763505
1.0951195
1.1071417
1.1151953
1.1207188
1.1241631
1.1244001
1.1226342
1.1178497
1.1085879
1.093093
1.0738237
1.0521342
1.0291872
1.0048963
0.98199551
0.96069359
0.9402946
0.91888366
0.89815907
0.87850508
0.86029989
0.84275499
0.82788835
0.81532513
0.80368567
0.79010298
0.77522698
0.7593452
0.7441595
0.73159381
0.72719849
0.73431624
0.75412473
0.78384301
0.82151625
0.86254399
0.90265087
0.93775584
0.96956287
0.99958569
1.0294698
1.0577411
1.0857076
1.1112135
1.1315295
1.1425387
1.1461152
1.1437399
1.1375986
1.1276914
1.117487
1.1075461
1.0973535
1.08414
1.0694497
1.0538467
1.0379969
1.0206304
1.0035903
0.98678886
0.96936558
0.94876291
0.92632258
0.90347075
0.88239463
0.86413716
0.85202145
0.84685221
0.84688745
0.84717196
0.8449727
0.83858914
0.82936817
0.82110747
0.82250227
0.84135184
0.88149721
0.93951852
1.0085884
1.0776177
1.1352649
1.1727249
1.1901933
1.1931838
1.1898416
1.1862511
1.187892
1.1952633
1.2047723
1.2102141
1.209507
1.2028916
1.1922103
1.1786779
1.1653642
1.1536898
1.1430045
1.1308072
1.1172739
1.1033425
1.0895824
1.0749461
1.0595188
1.0428564
1.0238792
1.0013502
0.97713602
0.9544321
0.93578558
0.92163182
0.91225486
0.90693067
0.90387328
0.90112366
0.89959932
0.90199853
0.91058053
0.92555985
0.94662046
0.97217498
0.99871922
1.0217462
1.0395957
1.0532209
1.063967
1.0724939
1.0804653
1.0894862
1.0987101
1.1052441
1.1073847000000001
1.1051958
1.098402
1.0864877
1.0706288
1.0534201
1.0359387
1.0178198
0.99924067
0.98148591
0.96457633
0.94774822
0.93113045
0.9162089
0.90301527
0.8904291
0.87769148
0.86554126
0.854044
0.84333895
0.83475185
0.83137567
0.83473043
0.8445716
0.85964444
0.87928342
0.9016394
0.92504996
0.94927056
0.97653266
1.0077389
1.0418451
1.0760196
1.1078933
1.1333878
1.1488414
1.1527039
1.1481674
1.1384042
1.1259079
1.1116418
1.0973968
1.0821324
1.0640323
1.041816
1.0182652
0.99544227
0.97467319
0.9555916
0.93923079
0.92406808
0.90807984
0.88952403
0.87092439
0.85426976
0.84106492
0.83091368
0.82460036
0.8200734
0.81442737
0.80452971
0.79160659
0.7771837
0.76367508
0.7528195
0.7489696
0.75404696
0.76846245
0.79017939
0.81992692
0.85609712
0.8961051
0.93512139
0.97207156
1.0041518
1.0289674
1.0434377
1.0503109
1.0515134
1.0494896
1.0448294
1.0421221
1.0429931
1.0478166
1.0538931
1.0621351
1.0708477
1.0779007
1.07916
1.0753755
1.0664025
1.0531686
1.0356617
1.0182545
1.0033337
0.99208346
0.98263357
0.97573629
0.97078049
0.96795971
0.9673547
0.97337804000000006
0.98931766
1.0169032
1.0538864
1.0983182
1.1454008
1.189803
1.2259251
1.2533491
1.2729866
1.2867912
1.2950659
1.3003764
1.3032147
1.3030231
1.297544
1.2886211
1.2780406
1.2675616
1.2568314
1.2477739
1.2403763
1.2333605
1.223677
1.2118979
1.1988065
1.1853424
1.1709392
1.1574253
1.1451054
1.1327151
1.1169085
1.0971604
1.0733906
1.0462384
1.016311
0.98746482
0.96333336
0.94611354
0.93530191
0.93110309
0.93256896
0.93791677
0.94466167
0.95347859
0.96585722
0.98280002
1.0032945
1.0275884
1.0548646
1.0826981
1.1070817
1.1270339
1.1427842
1.1543405
1.1605524
1.1625229
1.1616239
1.1580275
1.1506098
1.140639
1.130363
1.1210665
1.1124624
1.1052565
1.0997709
1.0944324
1.086194
1.0739276
1.0581373
1.0393355
1.0178139
0.99567642
0.97580227
0.95928089
0.94525943
0.9333024
0.92380433
0.91643442
0.91119455
0.90965383
0.91381827
0.92509088
0.94440786
0.97295808
1.0107031
1.0548524
1.1002299
1.1413251
1.1734187
1.1936878
1.2030619
1.2069025
1.2117424
1.2203602
1.2297827
1.2327193
1.2206108
1.187548
1.135409
1.0755159
1.0239391
0.99245168
0.98289254
0.98671987
0.98986924
0.98031284
0.95728733
0.93433308
0.93269273
0.96661195
1.0316762
1.1008987
1.1320998
