0.90329539
0.91469782
0.96308507
1.0113418
1.0309754
1.0154351
0.97811268
0.93947781
0.91655766
0.91371477
0.92428525
0.93899243
0.95306894
0.96683915
0.98191824
1.0004293
1.0205707
1.0369669
1.0433975
1.0372641
1.0188255
0.98972389
0.95483411
0.92019316
0.89089497
0.86936637
0.85799882
0.85658688
0.86257863
0.873634
0.88951267999999994
0.9110386
0.93749896
0.97100547
1.009397
1.0473899
1.0790715
1.1003191
1.1069509
1.0952308
1.067337
1.0274111
0.98062305
0.93210762
0.88961239
0.85698539
0.83403208
0.82035543
0.81571517
0.81996954
0.83270634
0.85834743
0.89802548
0.94865391
1.0036961
1.0552014
1.0933959
1.1095826
1.1031857
1.0780816
1.0408025
0.99804357
0.95802715
0.92432839
0.89626268
0.87330116
0.8557479
0.8443139
0.83910954
0.84455591
0.86189468
0.88913468
0.92257002
0.95875043
0.99313679
1.0211868
1.043371
1.0599989
1.0697707
1.0693237
1.057851
1.0337071
0.9965777
0.95145584
0.90676628
0.87031618
0.84553141
0.835796
0.83889327
0.84967658
0.86389523
0.88109881
0.90146351
0.92404045
0.95001286
0.97744805
1.001558
1.0164985
1.0208036
1.0134464
0.99428745
0.96662091000000006
0.93498707
0.90259177
0.86970241
0.84033659
0.81652688
0.79967382
0.79216477
0.79859315
0.82153527
0.8596523
0.91130263
0.9700126
1.0251891
1.0649231
1.0830491
1.0772127
1.0507066
1.0143178
0.98116485
0.96074237
0.95452717
0.96087802
0.97125344
0.97520723
0.96615849
0.94555165
0.91969238
0.89658264
0.88674617
0.89598712
0.92335068
0.96187639
1.0047254
1.0433198
1.0703522
1.0842094
1.0872765
1.0831576
1.0739329
1.0646309
1.056303
1.0469987
1.0340292
1.0168424
0.99489135
0.9674286
0.93798895
0.91000694
0.88548673
0.86467749
0.85028198
0.84290028
0.84195392
0.84890861
0.86507061
0.88936603
0.91710009
0.94640287
0.97303734
0.99263609
1.0031009
1.0059228
1.0023921
0.99215818
0.97768993
0.9602545
0.9399037
0.91633981
0.89383988
0.8764264
0.86739938
0.87129902
0.89068802
0.92331823
0.96131391
0.99970252
1.0323385
1.0554686
1.0697339
1.0792714
1.0855191
1.08497
1.0743851
1.0501668
1.0121732
0.96580776
0.92366456
0.89574536
0.88439718
0.88559758
0.89115431
0.89351129
0.89009367
0.89087088
0.90728939
0.94550433
1.0019978
1.0646894
1.1156382
1.13957
1.1349617
1.1107042
1.0807011
1.0563991
1.0443765
1.0409283
1.0361928
1.0227912
0.99881586
0.96705274
0.93141021
0.90010384
0.87690054
0.8616365
0.85295986
0.85121743
0.85586654
0.86516566
0.88082144
0.90315242
0.9306938
0.96058548
0.99221437
1.0227116
1.0478193
1.0652031
1.0735818
1.0716336
1.0571542
1.0330536
1.001518
0.9648797
0.92670165
0.8922436
0.86449726
0.84319084
0.82998817
0.82504598
0.82801865
0.83888535
0.86073813
0.89336593
0.93254636
0.97324552
1.0096749
1.0364358
1.0495725
1.0530265
1.0506001
1.0442835
1.0337416
1.0178156
0.99335186
0.95757962
0.91464898
0.87186406
0.83706914
0.81566042
0.81143601
0.82175587
0.83952451
0.85896475
0.87639061
0.88993338
0.89824093
0.90513163
0.91177393
0.91714394
0.91960633
0.91852296
0.91203264
0.89770636
0.87744644
0.85439951
0.83254359
0.81593849
0.81040716
0.81785823
0.83580355
0.86094341
0.8897239
0.91897421
0.94567647
0.97250135
0.99897688
1.0206463
1.0306578
1.0234558
0.99541346
0.94773797
0.89142172
0.83992091
0.80363531
0.78574005
0.78448053
0.79182799
0.79879029
0.80218065
0.80430983
0.80917009
0.81761397
0.83038058
0.84285729
0.84896536
0.84588023
0.83651595
0.82525713
0.81477345
0.80840621
0.80630281
0.80688975
0.80910558
0.81668804
0.83238221
0.85585293
0.8848739
0.91477237
0.93954276
0.95376828
0.95955009
0.95981527
0.95683056
0.95144058
0.94338778
0.92981851
0.90753294
0.87940574
0.85038736
0.82544528
0.8072912
0.79852211
0.79733602
0.79928637
0.80211965
0.80606129
0.8122482
0.82064452
0.83428343
0.85294024
0.87406126
0.89474556
0.9135969
0.92850866
0.93657875
0.93820924000000006
0.93371762
0.92308628
0.90612516
0.88603898
0.86487312
0.84332007
0.82350836
0.80787797
0.79755207
0.7911053
0.7910229
0.79724736
0.80825526
0.82273274
0.84109935
0.86252598
0.88462819
0.90780757
0.93108476
0.95160986
0.96507127
0.97020799
0.96539842
0.94975016
0.92603032
0.89899001
0.87273431
0.8484762
0.82984351
0.81730467
0.80966947
0.80634683
0.80934461
0.81990071
0.83725633
0.86266309
0.89496851
0.93036126
0.96329734
0.99157373
1.0125732
1.0241829
1.0274105
1.0244404
1.0164212
1.0023181
0.98464811
0.96493858
0.94513187
0.92861159
0.92011844
0.92131462
0.92912272
0.94015803
0.94881981
0.9495793
0.93954459
0.92336106
0.90749725
0.89804533
0.90088062
0.91815271
0.94631364
0.9766176
1.0039062
1.0232445
1.0323765
1.0328351
1.0295713
1.0259023
1.0214661
1.0158852
1.0063415
0.9891641
0.96194184
0.92814161
0.89234634
0.85902358
0.83369381
0.81971378
0.81612385
0.81742371
0.82193964
0.82728032
0.83264901
0.84005792
0.85392194
0.87568262
0.90208247
0.92983506
0.95375735
0.96913957
0.97393654
0.97232053
0.96855865
0.96494536
0.96282318
0.96104758
0.95608013
0.94316794
0.92423064
0.90183502
0.87894196
0.85881756
0.84521458
0.83891072
0.83805608
0.84386261
0.85654101
0.87457005
0.89452066
0.91492619
0.93258368
0.94442861
0.95112691
0.95537692
0.95913528
0.96123462
0.96225742
0.9597357
0.95050577
0.9335079
0.91158924
0.88790761
0.86410807
0.84390376
0.82912088
0.81984448
0.81535899
0.818184
0.82915135
0.847248
0.87194045
0.90157956
0.93261916
0.95968386
0.98213465
0.99848615
1.0073072
1.0081993
1.0025289
0.99039665
0.9706507
0.94544872
0.91721941
0.88841668
0.86124749
0.84031198
0.8274395
0.82155973
0.8219477
0.82779067
0.83792281
0.85057323
0.86881836
0.89332709
0.92194867
0.95048252
0.97436311
0.9874731
0.98403295
0.96471601
0.93311883
0.89425729
0.8530164
0.81664891
0.7897908
0.77455545
0.77315779
0.78605196
0.80953764
0.83471345
0.85531896
0.86463768
0.85960032
0.84359493
0.82597522
0.81531422
0.81516964
0.82631234
0.84356878
0.85886379
0.86527938
0.86288909
0.85422109
0.84248922
0.8321115
0.82629914
0.8256545
0.82808847
0.83596423
0.85011498
0.86979923
0.89313254
0.91824495
0.94101271
0.95630969
0.96417056
0.96632837
0.96532314
0.96324257
0.96351401
0.96565851
0.96597231
0.96146399
0.95043856
0.93239688
0.90732692
0.88080921
0.8570233
0.8381177
0.8248449
0.8182266
0.81737949
0.82019925
0.8283757
0.8435404
0.86582212
0.89295243
0.92343127
0.95302351
0.97666212
0.99252284
1.00133
1.004587
1.0025891
0.99837548
0.99192854
0.98135672
0.96518661
0.94439895
0.92009418
0.8927915
0.86679885
0.84556822
0.83071323
0.82186811
0.82112554
0.82821885
0.8411902
0.85982484
0.88422676
0.91282263
0.94108613
0.96793518
0.99001715
1.0035853
1.0064774
0.99945365
0.98319288
0.95765558
0.92592553
0.89087181
0.85493459
0.82012713
0.79093684
0.76929466
0.75432023
0.74567089
0.74312286
0.74628043
0.75436168
0.77222656
0.8027442
0.84614135
0.90007201
0.96032653
1.0187473
1.0652649
1.0949001
1.1061347
1.1012596
1.0853015
1.0666361
1.0498643
1.0343166
1.0172128
0.99492895
0.96479173
0.92610264
0.88635757
0.85261467
0.82907475
0.81641551
0.8133954
0.81593809
0.81978967
0.82680231
0.83988148
0.85996482
0.88384327
0.90751745
0.92438246
0.92927283
0.92346787
0.91306649
0.90432684
0.89890654
0.89733131
0.89517117
0.88726258
0.87224817
0.85459194
0.83952203
0.8290714
0.82491057
0.82484228
0.82542061
0.82520267
0.82958966
0.84358411
0.86881819
0.90423035
0.94456886
0.98156865
1.0067721
1.0199025
1.0225824
1.0172271
1.005911
0.9904733
0.97038818
0.94413896
0.91512397
0.88797008
0.86638499
0.85119166
0.8432401
0.83967301
0.83626374
0.8324428
0.83070441
0.83417554
0.84370953
0.86212171
0.88755617
0.91515996
0.94009105
0.96038448
0.97463371
0.98145875
0.98331034
0.98205687
0.9779928
0.96978729
0.95847659
0.94362909
0.92431213
0.90241326
0.88162489
0.86572444
0.85679793
0.85965772
0.87483752
0.89925329
0.92816819
0.95718766
0.98092359
0.99422152
0.9972391
0.99149467
0.97893334
0.96123183
0.94294551
0.92665147
0.91315907
0.90446787
0.90259327
0.90778046
0.91722006
0.93105942
0.94687634
0.96111353
0.97113751
0.9769817
0.97847911
0.97465815
0.96753036
0.95755372
0.9432755
0.92221001
0.89547985
0.8644263
0.83146783
0.80204747
0.78121744
0.77032005
0.76545221
0.76422963
0.76293374
0.76013693
0.7591247
0.76748385
0.79063285
0.82784816
0.87524431
0.92341736
0.96132243
0.98108563
0.98410568
0.9760177
0.96397419
0.95542862
0.95373535
0.95618615
0.95498487
0.94661963
0.92883448
0.90281649
0.87377461
0.84968454
0.83522813
0.82949961
0.83068666
0.83374821
0.83280289
0.82383137
0.80970274
0.79490411
0.78400801
0.78204846
0.79146103
0.81012796
0.83150371
0.85186728
0.86703342
0.87433816
0.87390806
0.868959
0.86187836
0.85286515
0.84399103
0.83630668
0.83013448
0.82562371
0.82630157
0.83375026
0.84717859
0.86600874
0.88854408
0.91121061
0.92873913
0.94130253
0.94888929
0.95216646
0.95303377
0.95457171
0.95728484
0.95870414
0.95808132
0.95394407
0.94473703
0.92945692
0.91099568
0.89133295
0.87115733
0.85235756
0.83708511
0.82651537
0.81991161
0.82040961
0.82876506
0.84354758
0.86218325
0.88255738
0.90087248
0.91253573
0.91754545
0.91730991
0.9139011
0.90913361
0.90665369
0.90690324
0.90735221
0.90603083
0.90158099
0.89298978
0.8790058
0.86388423
0.85038963
0.83967671
0.83220093
0.82918448
0.83011796
0.83314466
0.84019189
0.85260806
0.869971
0.88959299
0.91047019
0.9294074
0.94275955
0.95029578
0.95398008
0.95562234
0.95480074
0.95345365
0.95051963
0.94367323
0.93169407
0.9161529
0.89851961
0.8791559
0.86107743
0.84611823
0.83494635
0.82764631
0.82724587
0.83485714
0.84942462
0.87009938
0.8949711
0.92043528
0.94134171
0.95767356
0.96914633
0.97594356
0.97933252
0.98194774
0.98443139
0.98492009
0.9834421
0.97886686
0.96907318
0.95167831
0.92833072
0.90073437
0.87089736
0.84346698
0.82313791
0.81187967
0.80737492
0.80954455
0.815786
0.8234666
0.83189587
0.8425748
0.85480898
0.86451393
0.8689936
0.86534286
0.85265084
0.83343797
0.81611106
0.80761243
0.81016424
0.82219221
0.83809374
0.85013103
0.85141425
0.84416927
0.8335332
0.82582353
0.82642451
0.83821935
0.85833722
0.8797071
0.89831057
0.91142798
0.91813485
0.91881392
0.91736272
0.91517819
0.91105858
0.90449557
0.89528915
0.88296036
0.86640155
0.84933681
0.83439491
0.82326974
0.81730905
0.81814724
0.82509233
0.83522349
0.84793619
0.86187228
0.87487583
0.88425851
0.89008752
0.89134697
0.88666441
0.87721296
0.86544593
0.85329416
0.84057981
0.83054834
0.82421029
0.82150334
0.82278495
0.82996737
0.84299552
0.8589478
0.87649675
0.8929505
0.90492267
0.90940388
0.90769105
0.90061968
0.88830846
0.87256446
0.85535512
0.83752016
0.81814749
0.80071412
0.78705537
0.77778889
0.77306858
0.77359713
0.77755764
0.78073356
0.78208242
0.78136656
0.7794221
0.77803922
0.78250928
0.79547038
0.81591717
0.84186827
0.87009078
0.89635689
0.91606411
0.93042412
0.94016097
0.94520633
0.9451541
0.94059147
0.93131501
0.91700267
0.90183139
0.88991834
0.88323076
0.88047736
0.88111333
0.88244207
0.88209087
0.88220886
0.88747994
0.90120008
0.92192485
0.94788501
0.97280413
0.98977419
0.99531128
0.99142886
0.98192661
0.96963626
0.95814078
0.94802686
0.93765547
0.92489825
0.91165087
0.8992192
0.88726174
0.87601363
0.86577286
0.8565763
0.84798272
0.84518818
0.85098147
0.86459575
0.88238098
0.90052281
0.91478091
0.92277712
0.92888544
0.938006
0.95156428
0.96523448
0.972912
0.96635397
0.94046243
0.89896025
0.85204232
0.81060754
0.78018583
0.76376457
0.75717419
0.75409869
0.75184479
0.75410514
0.76610308
0.79045501
0.82852668
0.87587364
0.92426454
0.96543309
0.99715946
1.0190335
1.0313385
1.0360575
1.0347781
1.0278815
1.0147104
0.99957127
0.98509478
0.97147976
0.95691162
0.93952764
0.91655491
0.88616856
0.85298945
0.82318069
0.80155922
0.78933859
0.78700743
0.79085477
0.79577711
0.80048497
0.80668168
0.81639924
0.82910305
0.84603744
0.86448776
0.87989265
0.8888643
0.89179737
0.89007827
0.88460341
0.87863943
0.87359789
0.86858219
0.86131346
0.85301487
0.84470355
0.8376146
0.83547715
0.84155413
0.85596802
0.87440826
0.89484696
0.9128202
0.9243363
0.92850085
0.92846041
0.92706659
0.92489707
0.92396518
0.92398146
0.92300382
0.91882143
0.91365202
0.90943157
0.90699683
0.90778267
0.91220005
0.91829039
0.92168336
0.92266047
0.92139839
0.91888176
0.91733664
0.91987695
0.92638356
0.93283898
0.93654836
0.93430783
0.92397129
0.90555916
0.88438113
0.86493079
0.84928003
0.83898285
0.83435773
0.8343916
0.83713355
0.84596528
0.86285598
0.88756976
0.9177739
0.95020728
0.97930631
0.99917014
1.0097016
1.013008
1.0117726
1.0074707
1.0024913
0.9955447
0.98324882
0.9647114
0.9413641
0.91563482
0.8891684
0.86730169
0.85229789
0.84407572
0.84193154
0.84609946
0.85524311
0.86630624
0.87933582
0.89373962
0.90796135
0.91958604
0.92916885
0.9355061
0.93621578
0.93108183
0.92131181
0.90819831
0.89205531
0.87736163
0.86659964
0.86059781
0.85947838
0.86352935
0.87059521
0.87713222
0.88119887
0.88051348
0.8743756
0.86495366
0.85691942
0.85243205
0.85016129
0.84733829
0.84032745
0.82828556
0.81562231
0.81259404
0.82626643
0.85619057
0.89404386
0.92738117
0.94659926
0.95169413
0.95361109
0.96344773
0.98291881
1.0008296
0.99987002
0.9679324
0.91101006
0.85547517
0.83190106
0.85339623
0.90097455
0.9292463
