1.0285474
1.0861479
1.1774641
1.2548747
1.2891372
1.2798879
1.2468157
1.2106465
1.1809777
1.1515563
1.1089242
1.0472923
0.97357314
0.90232176
0.84583209
0.8093527
0.78852608
0.77422317
0.76033454
0.74687317
0.73707172
0.73256909
0.73345416
0.73735805
0.7422387
0.74976948
0.76592086
0.79673741
0.84342288
0.90390728
0.9715025
1.0369772
1.0935333
1.1393211
1.1740939
1.1970037
1.2117258
1.2197993
1.2207658
1.2139728
1.2014338
1.1828254
1.1549949
1.1180663
1.0718407
1.0167905
0.95556159
0.89596481
0.8440409
0.80255046
0.77305312
0.75397017
0.74117861
0.72996278
0.72021721
0.71226904
0.70668845
0.70549561
0.71102315
0.72458994
0.74601888
0.77876569
0.82414613
0.88072888
0.94520521
1.0134528
1.0786056
1.1317548
1.1703694
1.1940295
1.2045297
1.2058626
1.2046132
1.2028716
1.1968267
1.1835103
1.1585989
1.1187559
1.0641389
1.0024075
0.94094977
0.88460009
0.83735463
0.79984115
0.76987125
0.74442968
0.72463904
0.71057031
0.70064699
0.69342176
0.68817829
0.6857349
0.68923617
0.70781726
0.74834171
0.8117059
0.89193369
0.97815604
1.0568909
1.1165867
1.1564048
1.180832
1.1959127
1.2062807
1.2155983
1.2230038
1.225231
1.2239239
1.2206225
1.2141309
1.1994943
1.1725329
1.1277744
1.0631537
0.98594498
0.90840337
0.84208671
0.79288665
0.76264774
0.74553591
0.73282411
0.71933161
0.7047135
0.69114947
0.68025162
0.67575803
0.67856585
0.68856275
0.70736916
0.7390183
0.78572414
0.84459165
0.91195703
0.97987562
1.0388482
1.0821163
1.1097707
1.1242424
1.1279653
1.1261309
1.1204578
1.1085916
1.0862008
1.0529376
1.0088898
0.95585202
0.90068584
0.85050526
0.80950043
0.7777235
0.75548902
0.73926962
0.72470054
0.71044044
0.69757134
0.68738664
0.67992052
0.67829092
0.68454535
0.70104083
0.73141708
0.77915622
0.8428671
0.91378915
0.98215751
1.0365304
1.0681121
1.0748849
1.0645832
1.0476888
1.0320356
1.024305
1.0244876
1.0264925
1.0218838
1.0080844
0.98448019
0.95228724
0.91695547
0.88285895
0.85002185
0.81429309
0.77566072
0.73513323
0.696775
0.66839292
0.65651042
0.65997661
0.66817324
0.67025611
0.65798361
0.63364107
0.61290482
0.61909667
0.66959907
0.76495467
0.88977123
1.0155441
1.113671
1.1688723
1.1862223
1.1834129
1.1791861
1.1885281
1.2135237
1.2448702
1.269249
1.2811523
1.2801944
1.2696091
1.2564317
1.2451636
1.234537
1.2183015
1.1940549
1.1596882
1.1151024
1.0641255
1.0119237
0.96083308
0.90895576
0.85715657
0.8063393
0.75993553
0.72437971
0.70614228
0.70509858
0.71235351
0.71760143
0.71308931
0.70111597
0.69687296
0.72397967
0.79949901
0.92182219
1.0720444
1.2171358
1.3240437
1.3743218
1.3749951
1.347084
1.3130335
1.2895762
1.2798293
1.275221
1.2636397
1.2430992
1.2158506
1.1853977
1.1548209
1.1233513
1.0860827
1.0375707
0.98247881
0.9275914
0.87934445
0.84152897
0.81428499
0.79323954
0.77289131
0.75381994
0.73839832
0.72877384
0.72579679
0.7309901
0.74576684
0.77316651
0.82126178
0.89653053
0.99792662
1.1138916
1.2283071
1.3216072
1.3778965
1.3950206
1.381621
1.3509208
1.3139638
1.2815762
1.2555979
1.2320832
1.2085329
1.1851563
1.1624434
1.1384648
1.1146716
1.0877741
1.0526609
1.007108
0.95441126
0.9006213
0.8522655
0.81780697
0.7997291
0.79371942
0.79171765
0.78817131
0.78182881
0.77790303
0.78960941
0.82926162
0.90064214
0.99512678
1.0975832
1.1882219
1.2504397
1.2809075
1.287624
1.2831184
1.2766219
1.2756788
1.2774661
1.2731771
1.2571627
1.2296745
1.1949929
1.1576854
1.1261614
1.1012241
1.076998
1.0461374
1.0052588
0.95551792
0.90262206
0.85882181
0.83124844
0.81755399
0.80726959
0.78973843
0.75964171
0.72338073
0.70198013
0.71903422
0.7875994
0.90152835
1.0388229
1.1678725
1.2617222
1.3123896
1.3297694
1.3316472
1.3310108
1.3343287
1.3349609
1.3213648
1.2894993
1.2457268
1.2015501
1.1654829
1.1445838
1.1349212
1.1266543
1.1120519
1.0898531
1.0619454
1.0300923
0.99860708
0.96792496
0.93642933
0.90369245
0.87297137
0.84659948
0.82419839
0.80572077
0.78963532
0.77516621
0.76468587
0.76613471
0.78659658
0.8285949
0.89062952
0.96553078
1.0419852
1.1076768
1.1582779
1.1914583
1.2064492
1.2062302
1.1952359
1.176495
1.1506323
1.1245248
1.1015646
1.0818138
1.0637548
1.0458666
1.0248668
0.99705099
0.96548832
0.93316865
0.9015488
0.87057729
0.84106213
0.8123327
0.78395563
0.76004804
0.74395646
0.73556888
0.73093529
0.7269303
0.72125797
0.71618328
0.72181593
0.75047154
0.8094628
0.89570911
0.99913369
1.1022093
1.1872377
1.2456213
1.2790939
1.294748
1.298119
1.2970879
1.2922791
1.2803007
1.2593946
1.2324756
1.2032047
1.173182
1.1458897
1.1200436
1.091055
1.0546421
1.0110715
0.96211589
0.91043972
0.86210868
0.82142637
0.78956711
0.76505991
0.74744908
0.73473543
0.72465062
0.71796071
0.7164836
0.72152588
0.73319577
0.75480224
0.78868861
0.83616086
0.8993721
0.97912148
1.0702543
1.1593116
1.2348567
1.2841876
1.2996442
1.2838838
1.249205
1.2087477
1.1700041
1.1380712
1.1099248
1.0790175
1.0412679
0.99916659
0.95606435
0.91330123
0.8729678
0.83467645
0.79799782
0.76500348
0.74206503
0.73199708
0.73117592
0.73292672
0.73070656
0.72408129
0.72224348
0.74449943
0.80641599
0.90934922
1.03829
1.1664194
1.2650729
1.3148796
1.3197161
1.2964141
1.264708
1.2382122
1.2203387
1.2037806
1.1776376
1.1416108
1.101184
1.0640482
1.035167
1.0150345
0.99583435
0.96648607
0.92381061
0.87152762
0.8183786
0.77380419
0.74580466
0.73359544
0.728958
0.72334961
0.71109233
0.6922225
0.67332023
0.66897952
0.69295217
0.75316692
0.84964558
0.97254536
1.1029443
1.2171647
1.2990642
1.3396626
1.3396383
1.3100042
1.2682188
1.2284563
1.1964159
1.1757775
1.1634817
1.153808
1.1429496
1.1325384
1.1230173
1.1110492
1.0940566
1.067645
1.0282337
0.97616571
0.9196322
0.86664836
0.82146629
0.78572914
0.75763403
0.73422402
0.7141797
0.70169685
0.6990663
0.70366902
0.70965484
0.71152203
0.70910062
0.71077167
0.73576699
0.80044653
0.90803029
1.0449183
1.1846788
1.2965877
1.3580378
1.3701268
1.348833
1.3155199
1.2867146
1.269976
1.2601069
1.2459813
1.223633
1.1949609
1.1647115
1.1358084
1.1095405
1.0807131
1.0421387
0.99281789
0.93713766
0.88182948
0.83212928
0.79292375
0.76372478
0.74122345
0.72367181
0.7110902
0.70318218
0.69795427
0.69705788
0.70307006
0.72161235
0.7617156
0.8320994
0.9328044
1.0502312
1.1654115
1.2558449
1.3044196
1.3073841
1.2778159
1.2346815
1.1937972
1.1667356
1.1532755
1.1437627
1.1260096
1.0956228
1.0528659
1.0019366
0.95146084
0.90755756
0.87037185
0.83498816
0.79962168
0.76354865
0.72957787
0.70470605
0.69474591
0.69838997
0.70593012
0.70862992
0.70154498
0.69063799
0.69419269
0.73535012
0.82739259
0.96304601
1.1182287
1.2577511
1.3508197
1.3851728
1.3729109
1.3382686
1.3028742
1.2803962
1.2689804
1.2570579
1.2339971
1.201149
1.1652385
1.1324211
1.1060519
1.0820044
1.051133
1.0058028
0.94962748
0.89122197
0.8401379
0.80345936
0.78188171
0.76931957
0.75664386
0.74100196
0.72284604
0.70570878
0.69494885
0.69588367
0.71072797
0.7385368
0.78023278
0.83521315
0.90096387
0.97338995
1.0486038
1.1198809
1.178055
1.2193275
1.241809
1.2457124
1.2336807
1.2137883
1.1914253
1.1680588
1.1452012
1.1218532
1.0944264
1.0583666
1.0152154
0.96684692
0.91597983
0.86770247
0.82667971
0.79412332
0.76721835
0.74561022
0.72767416
0.71271276
0.70230748
0.69919097
0.70321614
0.71043399
0.71891454
0.72814421
0.74165145
0.76756574
0.81668436
0.89301688
0.98816247
1.086952
1.1694828
1.2187404
1.2280208
1.207642
1.1745153
1.1440864
1.1273211
1.1244125
1.1255378
1.1168087
1.0921671
1.0505594
0.99648722
0.9393779
0.88797779
0.84565751
0.80973537
0.77917272
0.75179272
0.72725161
0.70824184
0.69854131
0.69808999
0.70179432
0.70613686
0.70972729
0.71714821
0.73987703
0.79334627
0.88573429
1.0107454
1.1501892
1.2770235
1.3654959
1.4015843
1.3904866
1.348648
1.2947771
1.244652
1.2035443
1.1667453
1.1253561
1.0769413
1.022137
0.9643416
0.90938611
0.86158815
0.82157933
0.78703834
0.7596643
0.7395251
0.72564099
0.71696346
0.71290268
0.71232841
0.71450852
0.72307715
0.74066938
0.76687694
0.79780005
0.82829493
0.85185638
0.86337125
0.86448954
0.86014756
0.85540576
0.85291423
0.8554114
0.86132973
0.86621314
0.86917824
0.87035726
0.86903657
0.86277093
0.85285247
0.83790248
0.81616501
0.78971805
0.76315857
0.74024464
0.72146122
0.70910307
0.7010474
0.69329657
0.68337757
0.67199533
0.66071941
0.65066551
0.6451392
0.64486334
0.64818126
0.65292911
0.65938418
0.66878528
0.68347937
0.70949473
0.75173923
0.81134201
0.88442056
0.96510436
1.0427886
1.1049248
1.1436069
1.1559986
1.143995
1.1130171
1.0743027
1.0369019
1.0057411
0.98308023
0.9681608
0.95677046
0.94226221
0.92280214
0.89669988
0.86350537
0.82522027
0.78634285
0.75062358
0.71972561
0.69670895
0.68183228
0.67284507
0.66656674
0.66168138
0.65728154
0.65351952
0.65475713
0.66600043
0.69067552
0.72893443
0.77880942
0.83301042
0.88063574
0.91366531
0.92843905
0.92630553
0.91252491
0.89873868
0.89267515
0.89553219
0.90428441
0.91270128
0.91347223
0.9012851
0.88098713
0.85928437
0.84201927
0.83226579999999994
0.82930786
0.82727299
0.81827434
0.80066936
0.77616828
0.74918222
0.72503203
0.70872381
0.70037877
0.69548521
0.69035961
0.68198899
0.66952819
0.65538472
0.64776047
0.65516695
0.68345938
0.73586405
0.80913407
0.89196351
0.96695064
1.0204263
1.0427822
1.0327832
1.0005287
0.9628518
0.93496097
0.92352805
0.92986152
0.94522491
0.95648145
0.95355022
0.93394246
0.90080007
0.86014639
0.82198088
0.79253547
0.77305937
0.76139509
0.75545782
0.75216464
0.74879907
0.74690091
0.74887838
0.75667245
0.77108914
0.79362692
0.82285965
0.85488475
0.88689411
0.91653704
0.94157667
0.9596394
0.97261736
0.98142526
0.98541378
0.9848272
0.98047049
0.9721376
0.95790728
0.94138749
0.92449573
0.9080427
0.89311415
0.88157446
0.87287294
0.86364407
0.85352841
0.84079157
0.8233231
0.80037408
0.77470401
0.74901995
0.72525861
0.70713378
0.69605313
0.6903073
0.68616871
0.68235501
0.67844337
0.67624271
0.68226738
0.70377293
0.74464388
0.80239463
0.87224441
0.94347221
1.0030845
1.0427475
1.0612172
1.0629135
1.0546956
1.0487229
1.0511877
1.0606273
1.0702967
1.0724117
1.0600178
1.0301405
0.98952903
0.94689038
0.90866912
0.87685181
0.85065976
0.82610244
0.79967307
0.7740127
0.75347528
0.74041352
0.73287077
0.72754686
0.71975812
0.70809252
0.69927552
0.70438161
0.73230794
0.78380076
0.85329971
0.9274013
0.99102324
1.0358636
1.0625251
1.0762972
1.0811259
1.0824322
1.0795713
1.0690519
1.0497299
1.0249853
0.99873205
0.97243857
0.94878162
0.92636244
0.90201774
0.87431293
0.84607863
0.81962276
0.79504135
0.77330934
0.75364081
0.73503629
0.71799984
0.70652484
0.70214264
0.70231105
0.70362944
0.7031903
0.70166689
0.70498494
0.72570823
0.77282381
0.84561873
0.93328531
1.0176444
1.0792021
1.1042848
1.0960054
1.0661502
1.0295533
0.99860397
0.97928707
0.96841174
0.95720063
0.94204787
0.92183373
0.89796808
0.87316232
0.85082002
0.83040219
0.80846881
0.78464909
0.75969298
0.73531094
0.71358629
0.69813202
0.68930012
0.68446189
0.68179186
0.68000995
0.67877107
0.6789689
0.68568111
0.70263749
0.73080698
0.76946541
0.8157124
0.86394045
0.90651499
0.94126763
0.9666871
0.98241275
0.99024268
0.99341586
0.99309019
0.98796352
0.97976381
0.96850962
0.9532442
0.93336262
0.91016078
0.88364089
0.85287068
0.82013515
0.78778447
0.757831
0.73188303
0.71288113
0.70069351
0.69231669
0.68543602
0.67814567
0.66961805
0.66076542
0.65741143
0.66459127
0.68468999
0.71791514
0.76148509
0.80908768
0.85183857
0.88564981
0.90728359
0.91515441
0.91039409
0.89657673
0.87642827
0.85095642
0.82421352
0.79839061
0.77416442
0.75188462
0.73307565
0.71731593
0.70267108
0.69002577
0.67981718
0.67183412
0.66557763
0.66257737
0.66231146
0.66259087
0.66291122
0.66329366
0.66388448
0.6648342
0.6699995
0.68166365
0.69972322
0.72363727
0.75245578
0.78337829
0.81125244
0.83539553
0.854299
0.86608485
0.86990237
0.86669693
0.85634645
0.83734161
0.81231049
0.78378784
0.75463966
0.72847443
0.70983847
0.69954186
0.69412538
0.69057347
0.68569841
0.678108
0.66931506
0.66491609
0.66801282
0.67686928
0.68811238
0.69831776
0.70695492
0.71798475
0.74262442
0.78913867
0.85705428
0.93702712
1.0137861
1.0714798
1.1000185
1.1036601
1.0929373
1.0783265
1.065175
1.0520742
1.0314274
0.99510294
0.94416544
0.88563002
0.82954436
0.78477185
0.75640366
0.74199243
0.73414186
0.72792043
0.72096471
0.71385842
0.70911304
0.71161562
0.72339922
0.74306212
0.76981514
0.80313896
0.84203581
0.88406844
0.92912498
0.97354742
1.0102152
1.032486
1.0365583
1.0217757
0.99029608
0.95259647
0.91818313
0.89311815
0.87860451
0.86970266
0.85751514
0.83478094
0.80236801
0.76554944
0.73178959
0.70746721
0.69448599
0.68877326
0.68430116
0.67865345
0.67192113
0.66645752
0.66618629
0.67641802
0.70227766
0.74882921
0.81932303
0.90810852
0.99761843
1.0627722
1.084038
1.0595379
1.0129544
0.98667161
1.0169882
1.107516
1.2169392
1.2742737
