1.0564853
1.0432828
1.07345
1.1210432
1.155343
1.1600141
1.1365982
1.1005546
1.0691402
1.0550013
1.0588092
1.0719832
1.0820742
1.0830592000000001
1.0754023
1.0644523
1.054696
1.0493376
1.0466861
1.0423264
1.0312961
1.013815
0.99323882
0.97448494
0.96047305
0.95344259
0.95266244
0.9559067
0.96016919
0.965657
0.9735163
0.98504393
0.99968423
1.0175552
1.0373783
1.0571561
1.0740017
1.0891256
1.1025935
1.1144958
1.1239954
1.1335298
1.1432288
1.1522154
1.158305
1.1627028
1.164978
1.1644638
1.1598949
1.1534774
1.1456362
1.1360931
1.1236213
1.1099847
1.0952981
1.0793053
1.0613792
1.0439403
1.0277605
1.0128495
0.99844442
0.9862282
0.97628168
0.96829767
0.96185649
0.9592513
0.96119104
0.96730132
0.9761686
0.98825087
1.0023249
1.0167105
1.029956
1.0436358
1.0581631
1.0730927
1.0872725
1.1014876
1.114668
1.125071
1.1313359
1.1352318
1.1374306
1.137889
1.1362784
1.1341835
1.1311505
1.1257017
1.1166296
1.105417
1.0923753
1.0772341
1.0599911
1.0426147
1.0254762
1.0081595
0.99074641
0.97543602
0.96316862
0.95398128
0.94793864
0.94635775
0.94875951
0.95348346
0.95916574
0.96624326
0.97420074
0.98197528
0.98926771
0.99763608
1.0074977
1.0182396
1.0295466
1.0422972
1.0556414
1.0673781
1.0759688
1.0818343
1.0848729
1.0848279
1.0829382
1.0820222
1.0829906
1.0845584
1.0851801
1.0839155
1.0785645
1.0667502
1.0485938
1.0269449
1.0043761
0.9825352
0.96347117
0.94918296
0.93938849
0.93208928
0.926307
0.92246054
0.92049507
0.91977889
0.92094468
0.92535249
0.93293412
0.94208545
0.95213793
0.96330209
0.9749617
0.9855761
0.99513865
1.0046102
1.0139413
1.0217655
1.0280766
1.0336317
1.0382619
1.040689
1.0414158
1.0417511
1.0420047
1.0410548
1.0392391
1.0371756
1.034279
1.028614
1.0202322
1.0100213
0.9983362
0.98459778
0.97026357
0.95710608
0.94579125
0.93548276
0.92695642
0.92115494
0.91819176
0.91698867
0.91832259
0.92313021
0.93139185
0.94150185
0.95343689
0.96709465
0.98151597
0.99444709
1.0059031
1.0163479
1.0258353
1.03318
1.0393676
1.0451729
1.0503142
1.0527875
1.052919
1.0512496
1.0481588
1.0431184
1.0383865
1.0358444
1.0359561
1.0366326
1.037374
1.0369039
1.0334974
1.0248137
1.0122616
0.997861
0.9834667
0.96930499
0.95747098
0.94878577
0.94292972
0.93804353
0.93506586
0.93480233
0.93770653
0.94257811
0.9503701
0.96091288
0.9731005
0.98415826
0.99436398
1.0038342
1.0126337
1.0193946
1.0256929
1.0320583
1.0381735
1.041766
1.0437626
1.0444844
1.0442137
1.0418811
1.0398897
1.0394282
1.0406604
1.0412351
1.04154
1.0405764
1.0370966
1.0286986
1.0171411
1.0036656
0.98944144
0.97388365
0.95945765
0.94703023
0.93694514
0.92796401
0.92234694
0.92114087
0.9248318
0.93166426
0.94255726
0.9565241
0.97200987
0.98582366
0.99879453
1.0109463
1.0224595
1.0317525
1.0408297
1.0498301
1.0583362
1.0638513
1.0679521
1.0708121
1.072682
1.0720458
1.0714918
1.0716456
1.0726216
1.0721768
1.0718742
1.0711165
1.0690014
1.0627075
1.0538286
1.0423954
1.028754
1.0118822
0.99504017
0.97960676
0.96656297
0.95487697
0.94688258
0.94281394
0.94253671000000006
0.94427625
0.94982673
0.95906723
0.97129077
0.98385075
0.99748242
1.0112883
1.0244707
1.0352189
1.0457766
1.0566507
1.0676429
1.0764578
1.0839742
1.0891888
1.0912491
1.0887926
1.0849434
1.0813361
1.0788915
1.0763552
1.0750748
1.0739179
1.0713438
1.0651897
1.0575607
1.0492609
1.0406354
1.0304544
1.0202089
1.0093529
0.99724426
0.98316456
0.97046046
0.96130683
0.95714988
0.95756795
0.96376126
0.97418735
0.98628114
0.99689093
1.006639
1.0155358
1.0236797
1.0304797
1.0379322
1.0458981
1.0532235
1.0579505
1.0613223
1.0634066
1.064086
1.0628923
1.0622502
1.0627083
1.0638376
1.0644111
1.0657604
1.0674463
1.0683439
1.0670195
1.0648239
1.0616091
1.0566212
1.0488936
1.0400166
1.0301282
1.0188784
1.0060541
0.99411053
0.98427144
0.97712664
0.97298961
0.97396768
0.98012974
0.99012916
1.0020043
1.0157372
1.0299155
1.0425575
1.0521163
1.0598443
1.066147
1.0709615
1.074413
1.0785595
1.0834945
1.0877801
1.0897368
1.0897772
1.0874018
1.0820668
1.0744025
1.0674323
1.0625441
1.0593435
1.0567501
1.0546841
1.0514864
1.0450878
1.0349417
1.0231964
1.011225
0.99940346
0.98819381
0.97899964
0.97168363
0.96544276
0.96080485
0.96034856
0.96555973
0.97635802
0.99220597
1.0126343
1.0349983
1.0553643
1.0712395
1.0828317
1.0906197
1.0950404
1.097777
1.1013613
1.1060876
1.1099818
1.1114312
1.1101388
1.1053991
1.0965353
1.0852035
1.0748485
1.0674377
1.0626285
1.0598994
1.0586276
1.0565445
1.050584
1.0401238
1.0268351
1.012254
0.99700395
0.98269249
0.97098683
0.96185874
0.95391048
0.94746165
0.9440939
0.94484486
0.94956397
0.95904147
0.97381927
0.99255709
1.0119861000000001
1.0302697
1.0465732
1.0598465
1.0684993
1.0734205000000001
1.0765253
1.079002
1.0806161
1.0828148
1.0870565
1.0933359
1.0997463
1.1060957
1.1124342
1.1180427
1.121073
1.1220559
1.1218245
1.1201792
1.1152607
1.1071743
1.096263
1.0824972
1.0651556
1.046299
1.0282628
1.012397
0.99813803
0.98643794
0.97778969
0.97202188
0.96806939
0.96758924
0.9723361
0.98298147
0.99777933
1.0160793
1.0361418
1.0552839
1.0698117
1.0796377
1.0856751
1.0890939
1.0897701
1.0899259
1.0906683
1.0917216
1.0908083
1.0885214
1.085361
1.0816709
1.0764519
1.0715296
1.0676589
1.0643189
1.0588006
1.0512021
1.0412071
1.0286683
1.0127666
0.99638876
0.98172266
0.96992978
0.95974777
0.95206594
0.94646945
0.94227601
0.93804663
0.93620787
0.93878179
0.9470506
0.9596356
0.97681547
0.99672692
1.0165448
1.0320982
1.0434893
1.0510956
1.0559125
1.0575757
1.0589224
1.0609219
1.0634235
1.0640352
1.0639028
1.0631409
1.0618854
1.0587054
1.0557709
1.0534167
1.0510267
1.0456728
1.0380538
1.0278077
1.0150989
0.99922653
0.98375654
0.97059526
0.96057273
0.95165539
0.94451727
0.93805347
0.93159948
0.92407356
0.91918906
0.91952697
0.9267418
0.93904347
0.95642467
0.97591075
0.99415987
1.0069691
1.0157282
1.021636
1.0264319
1.0295414
1.033449
1.0375858
1.0406709
1.0398158
1.0371942
1.0339757
1.0315975
1.0293763
1.0298457
1.0324829
1.0357331
1.0360965
1.0344726
1.030526
1.0243266
1.0147084
1.0043326
0.99373493
0.98290586
0.97028204
0.95795943
0.9464933
0.93644296
0.9272877
0.92190896
0.92132661
0.92583407
0.93387698
0.94658492
0.96283376
0.98068743
0.99676605
1.0112501
1.0231859
1.0319145
1.0362495
1.038883
1.0409992
1.0432559
1.0448771
1.0479873
1.0525811
1.0579117
1.0620866
1.0664199
1.0705336
1.0736055
1.0739397
1.0729711
1.0704823
1.065815
1.0576323
1.0477021
1.0363017
1.023351
1.0082426
0.9932387
0.97905914
0.96595888
0.95372945
0.94492184
0.94064612
0.94138842
0.94679451
0.95846199
0.97565654
0.99609955
1.0162938
1.035131
1.0504852
1.0605517
1.0643171
1.064432
1.0626526
1.0600189
1.0566971
1.0545886
1.0533904
1.0517871
1.0483899
1.0446558
1.0409511
1.0370917
1.032646
1.0291075
1.0259892
1.0217213
1.0147381
1.0060176
0.99561503
0.98340692
0.96979758
0.95732921
0.94690727
0.93830506
0.93115466
0.92681281
0.92537394
0.92643125
0.93007509
0.93815531
0.95087752
0.96693097
0.98449216
1.0029177
1.020178
1.0337547
1.0423134
1.0472211
1.0493492
1.0490232
1.047003
1.0453249
1.0441574
1.0423013
1.0390595
1.0355587
1.0319963
1.0279129
1.0236174
1.0206709
1.0188166
1.016206
1.0114047
1.0044983
0.99500771
0.98243496
0.9679703
0.9543589
0.94281239
0.93268299
0.92327193
0.91453408
0.9056956
0.89612718
0.88749728
0.88340372
0.88623644
0.89602164
0.91184304
0.93208377
0.9531771
0.97074878
0.98294241
0.9907898
0.99576654
0.99875946
1.0015513
1.0058504
1.0111845
1.0152215
1.0170697
1.0173108
1.0163141
1.0138384
1.0111855
1.0098646
1.0094521
1.0074307
1.0024579
0.99421351
0.98244247
0.96697671
0.95025623
0.935457
0.92407749
0.91506778
0.90773446
0.90132248
0.89488945
0.88793859
0.88340142
0.88549696
0.89703178
0.91748243
0.94525113
0.9767786
1.0068945
1.0300949
1.0450336
1.0532898
1.0573917
1.0586868
1.0594546
1.0605937
1.0610364
1.0581075
1.0520877
1.044572
1.0372466
1.0303892
1.0257481
1.0239147
1.0237975
1.0225479
1.0199695
1.0164069
1.0120228
1.0056982
0.99840291
0.99048868
0.98143755
0.96956074
0.95606937
0.94252587
0.93033063
0.91963955
0.91267821
0.91086988
0.91457469
0.92237782
0.93488073
0.95194956
0.97251493
0.99365188
1.0146786
1.0344512
1.0516101
1.0637944
1.0720624
1.0773243
1.0801845
1.0796307
1.0774358
1.0744101
1.0707297
1.0649797
1.0588746
1.0532831
1.0484122
1.0425372
1.0366035
1.0303096
1.022778
1.0117308
0.99847859
0.9839613
0.96922453
0.95398597
0.94087497
0.93086765
0.92375875
0.9171363
0.91140552
0.90614428
0.90131382
0.89624091
0.8939859
0.89651863
0.90476995
0.91676479
0.93246427
0.94972107
0.96590155
0.97720935
0.98452394
0.98860393
0.99076915
0.99068637
0.99136716
0.99343782
0.99638256
0.99725427
0.99702948
0.99544651
0.99262364
0.98730539
0.98240026
0.97877951
0.97643487
0.97276574
0.96866934
0.96327442
0.95601779
0.94527579
0.93396623
0.92339667
0.91439228
0.90537028
0.89793802
0.89173146
0.88665143
0.88177534
0.88057821
0.88500906
0.89616582
0.91213362
0.93299507
0.95599525
0.97792655
0.99472334
1.0073204
1.016378
1.0231881
1.0275611
1.0323779
1.0379409
1.0436536
1.0472489
1.0502155
1.0525608
1.0541393
1.0533318
1.0517524
1.0490343
1.0444772
1.0363609
1.0267621
1.0163524
1.0055282
0.99333385
0.98169852
0.97061333
0.95966083
0.94758942
0.93652934
0.92726582
0.92025941
0.91484668
0.91299827
0.91484352
0.91987511
0.92652524
0.93606669
0.94810774
0.9615218
0.9739548
0.98581959
0.9961075
1.0036933
1.007172
1.0086252
1.0088394
1.0080546
1.0055218
1.0031051
1.0008603
0.99832138
0.99459367
0.9917915
0.99035855
0.98981312
0.98863207
0.98755606
0.98553485
0.98114012
0.97310378
0.96340563
0.95299507
0.94241053
0.93173895
0.9231022
0.91680401
0.91237895
0.90921851
0.90918904
0.91292893
0.92037046
0.93088068
0.94535983
0.96265336
0.98037485
0.99583151
1.0087961
1.0184224
1.0240359
1.0257025
1.0260373
1.0262622
1.0263973
1.0258991
1.0257625
1.0253955
1.0235959
1.019753
1.0156759
1.0120279
1.0085182
1.0046418
1.0012126
0.99734299
0.99131206
0.98210873
0.97112124
0.95911983
0.94648435
0.93404818
0.92390935
0.91638916
0.91049164
0.90544602
0.90204924
0.90028038
0.89971554
0.90074845
0.90516709
0.91321921
0.92357005
0.93479901
0.94653441
0.95729903
0.96509342
0.96936586
0.97175883
0.97323872
0.97382025
0.97402425
0.97516813
0.97684063
0.97730486
0.97584581
0.97340805
0.97031599
0.96625806
0.96204224
0.95932738
0.95805315
0.9564408
0.95336582
0.94873818
0.94186511
0.93180234
0.91954945
0.90747577
0.89691216
0.88771771
0.88031377
0.87544532
0.87283145
0.871519
0.87234623
0.87728729
0.88733473
0.90173658
0.92002119
0.94141949
0.96364023
0.98321282
0.99870254
1.0103372
1.0183803
1.0224385
1.0237729
1.0239628
1.0232527
1.020317
1.015468
1.0097949
1.0038838
0.99731911
0.9914039
0.98746697
0.98531675
0.9827787
0.97903639
0.97360221
0.96566093
0.95396673
0.93996237
0.92584199
0.91308457
0.9015293
0.89221061
0.88564579
0.88134238
0.87776554
0.87578614
0.87690078
0.882221
0.8913938
0.90531848
0.92389874
0.94540589
0.96617776
0.98464309
0.99978795
1.0109664
1.0171786
1.0204434
1.0227515
1.0250423
1.0261024
1.0264999
1.0261871
1.0246745
1.0206117
1.0158217
1.0119937
1.0098578
1.0078246
1.0059043
1.0029819
0.99737433
0.98669117
0.97231315
0.95614945
0.94009736
0.92446305
0.91142764
0.90167729
0.8947916
0.88886588
0.88489797
0.88367905
0.88574436
0.889981
0.89738312
0.90761817
0.91946023
0.93005136
0.93967509
0.94836213
0.95614069
0.96156579
0.96613229
0.97017451
0.97338998
0.97376293
0.97270002
0.97087698
0.96887647
0.9657281
0.96372457
0.96366056
0.96543256
0.96668558
0.96804471
0.96871349
0.96764765
0.96246673
0.95471979
0.94513935
0.9344661
0.92188589
0.90983241
0.89911894
0.89004947
0.88125387
0.8747664
0.87143292000000006
0.87196807
0.87540018
0.88381181
0.89737601
0.91537189
0.93465677
0.9551276
0.97495852
0.992193
1.0034782
1.0099446
1.012087
1.011171
1.0072474
1.0042734
1.0038419
1.0062464
1.0086771
1.0114028
1.0127629
1.0116537
1.0063978
1.0001801
0.99472794
0.99102423
0.98720214
0.98382732
0.97906563
0.97123369
0.95833951
0.94332259
0.92833648
0.91535422
0.90418172
0.89681925
0.89279316
0.8913213
0.89097059
0.89437783
0.90296623
0.91733427
0.93540082
0.95672066
0.97816942
0.99625221
1.0072514
1.0124703
1.0132386
1.0114518
1.0077047
1.0050407
1.0036502
1.0025009
0.99923288
0.99516669
0.99059121000000006
0.98606132
0.98195458
0.97924385
0.9768426
0.97327916
0.96768522
0.961268
0.9543418
0.94668521
0.9373973
0.92624352
0.91227246
0.8960954
0.88065371
0.87101978
0.86977108
0.87591439
0.88500839
0.89211642
0.89343283
0.89032238
0.88988548
0.90183486
0.93040376
0.97040788
1.0078218
1.0265044
1.0159651
0.9802626
0.93950296
0.92190832
0.94687553
1.0119126
1.0882653
1.1295707
