1.026639
0.99310423
1.00106
1.0387076
1.0841684
1.1164475
1.1258708
1.1146623
1.0939992
1.0759028
1.0706153
1.0804342
1.1007981
1.1228391
1.1394919
1.1483748
1.1512332
1.1517975
1.1530621
1.1573489
1.163909
1.1702843
1.1726482
1.1707538
1.1656877
1.1595918
1.1535009
1.1479442
1.1427203
1.1366638
1.1283343
1.1167827
1.1036841
1.0910594
1.0807631
1.0724674
1.0669946
1.0641553
1.0638215
1.0650139
1.0693394
1.0787017
1.0938566
1.1138374
1.136487
1.1606075
1.1832833
1.2019427
1.213358
1.2195835
1.2219442
1.2220583
1.2198699
1.2165983
1.2127895
1.2079566
1.2011694
1.1922812
1.1838804
1.1772731
1.1729965
1.1684681
1.1640894
1.157747
1.1476626
1.1320706
1.1131769
1.0947092
1.0801243
1.0714164
1.0690491
1.0736658
1.0829875
1.0940468
1.1024859
1.109081
1.1139284
1.1177837
1.12018
1.1220363
1.1234392
1.1231143
1.1190402
1.109929
1.0975035
1.0833018
1.0694727
1.0564188
1.0479472
1.0450068
1.0473593
1.0525439
1.0598961
1.0688416
1.0784201
1.0874252
1.0952023
1.1033485
1.1117601
1.1197576
1.1242958
1.1264071
1.1254164
1.1212895
1.1136167
1.1050075
1.0984457
1.0957268
1.096809
1.100317
1.1055992
1.1099032
1.1105164
1.1039524
1.0919929
1.0760482
1.0583763
1.0402197
1.0243185
1.0125118
1.0049891
1.0006247
0.99826298
0.99881388
1.0021667
1.0082966
1.0153448
1.0250729
1.0369532
1.0499919
1.0617334
1.0719031
1.0806684
1.0878803
1.0929963
1.0957281
1.0979118
1.0999568
1.1019656
1.1019228
1.1017492
1.101452
1.1009779
1.0989795
1.0962742
1.0937301
1.0913243
1.0880949
1.0829928
1.0769376
1.0695313
1.0604705
1.047942
1.034412
1.0207253
1.0076837
0.99467936
0.98287771
0.9731809
0.9655626
0.95930524
0.9539712
0.95123109
0.9516909
0.95589303
0.96254382
0.97359098
0.98880408
1.0073689
1.026826
1.0464903
1.0658175
1.0837588
1.0987988
1.1098177
1.1182588
1.1245414
1.1291619
1.1306474
1.1315996
1.1324761
1.1333475
1.1325983
1.130602
1.1278348
1.1240789
1.1184854
1.1104573
1.1018403
1.0932529
1.0852436
1.0762665
1.0686874
1.0625776
1.0574672
1.0511592
1.0433675
1.0340864
1.0230217
1.0097832
0.99463548
0.98028484
0.96821044
0.95947333
0.95286292
0.95047221
0.95257044
0.95951766
0.97077952
0.98783567
1.0119633
1.0428539
1.0781435
1.11415
1.1481945
1.1764393
1.1961011
1.2045742
1.2052349
1.201242
1.1962466
1.1920002
1.1909793
1.1940413
1.1999027
1.20586
1.2094669
1.211204
1.2110242
1.2093573
1.2047602
1.1997395
1.1944184
1.1884928
1.1802364
1.1703186
1.1599583
1.1499248
1.1402575
1.1307515
1.1228306
1.1160916
1.1096978
1.1009313
1.0912175
1.0806424
1.0696267
1.0576169
1.045925
1.0357277
1.0271351
1.0192134
1.0109099
1.0031566
0.9961223
0.99047588
0.98569379
0.98528134
0.99074553
1.0028039
1.0197952
1.0411425
1.0654313
1.0901084
1.1120976
1.1292337
1.1426081
1.152825
1.1609501
1.1660777
1.1712814
1.1769178
1.1825671
1.1859379
1.1869531
1.1858948
1.1827144
1.1770666
1.1690332
1.1609218
1.1533414
1.1463347
1.1375289
1.1283836
1.1183243
1.1068583
1.0925337
1.0764629
1.0602112
1.0447454
1.0302182
1.0165943
1.0055235
0.99709223
0.9911944
0.98606631
0.983919
0.98541495
0.9911707
1.000385
1.0137482
1.0314932
1.0526108
1.0749658
1.0963299
1.1166536
1.1350006
1.1507901
1.1618555
1.1705482
1.1773901
1.1827195
1.1851944
1.1855308
1.1844626
1.1819224
1.1771581
1.1697243
1.161746
1.1540457
1.1473278
1.1400447
1.1346806
1.1312631
1.1293132
1.1266545
1.1232164
1.1191266
1.1139474
1.1067608
1.0970026
1.0864686
1.0757306
1.0652895
1.0537782
1.04359
1.0352033
1.0288851
1.0235926
1.0201946
1.0197277
1.0226345
1.0287227
1.0378277
1.051552
1.069938
1.0924669
1.1162623
1.1419571
1.168069
1.1929579
1.2137548
1.230167
1.2424929
1.2507376
1.25449
1.25368
1.2506614
1.246286
1.2411413
1.2335569
1.226057
1.2189901
1.212501
1.20527
1.1980611
1.1915858
1.1855884
1.178852
1.1701294
1.1603581
1.149272
1.1367975
1.1212604
1.1054155
1.0902359
1.0765269
1.0635342
1.0522376
1.0434465
1.0370915
1.0324053
1.0288235
1.0279173
1.0300778
1.0355319
1.0425194
1.0527986
1.0660985
1.0818864
1.0982803
1.115551
1.1341592
1.1538533
1.1734838
1.1917445
1.2090987
1.2242247
1.2355256
1.2395854
1.2377485
1.230021
1.2171866
1.1995083
1.180108
1.1622971
1.1482735
1.1387369
1.133552
1.1337166
1.1379334
1.1442701
1.1487264
1.1517762
1.1523868
1.1499966
1.1432563
1.1333102
1.1215708
1.1087955
1.0950819
1.0806555
1.0676398
1.0568191
1.0487581
1.0421622
1.0391396
1.0397979
1.0438985
1.0498215
1.0576605
1.0673697
1.0780932
1.088214
1.0962663
1.1028193
1.1073839
1.1096748
1.1077814
1.1043191
1.1000818
1.0957636
1.0904817
1.0855171
1.0821122
1.080656
1.0807523
1.0821133
1.0866328
1.0943097
1.1043657
1.1132234
1.1210455
1.125824
1.1257939
1.1186051
1.1051989
1.0876576
1.06794
1.0473561
1.0269562
1.0093564
0.99510751
0.98413486
0.97410351
0.96657241
0.96098224
0.95642541
0.95052696
0.94310014
0.93473247
0.92643357
0.91982774
0.91761533
0.92461077
0.9432674
0.97377075
1.0118177
1.0547182
1.0968325
1.1329565
1.1585942
1.1741707
1.1827945
1.1883095
1.1937274
1.2006824
1.2107984
1.2224044
1.2326897
1.2370643
1.2362289
1.2305612
1.2216279
1.2101524
1.1987691
1.1894608
1.1825311
1.176835
1.1710637
1.1662647
1.1623614
1.1593168
1.1550663
1.1513184
1.1476079
1.1431955
1.1361212
1.1267242
1.1159668
1.104525
1.0925916
1.0803691
1.0698212
1.0614606
1.0554877
1.0502436
1.0476146
1.0478106
1.0508579
1.0553662
1.0616742
1.0701085
1.0802442
1.0909077
1.1010757
1.1118667
1.1230242
1.1341536
1.1428971
1.1510941
1.1586535
1.1655192
1.1704319
1.1744859
1.1787562
1.1833216
1.1872059
1.1893116
1.190499
1.1902477
1.1881972
1.1824819
1.1757203
1.1686836
1.1618732
1.154059
1.1456845
1.1368937
1.1270205
1.1149811
1.1003909
1.0854787
1.071528
1.0597866
1.049438
1.0429947
1.0405261
1.0415278
1.0440067
1.0479843
1.0537106
1.06087
1.0684622
1.0754835
1.082836
1.0900084
1.0963608
1.0994272
1.1010302
1.1013254
1.1005215
1.0974883
1.093239
1.088842
1.0845796
1.0800024
1.0748526
1.0711143
1.069318
1.0696992
1.0702106
1.0726252
1.0763136
1.0802601
1.0820061
1.0814249
1.0787477
1.0738464
1.0662877
1.0561426
1.0458004
1.036297
1.0284128
1.0207995
1.0157861
1.0135024
1.0137623
1.0150215
1.0177679
1.0226541
1.0297014
1.0382546
1.0476938
1.059236
1.0726447
1.0873799
1.1009242
1.1144799
1.1273651
1.1388139
1.1468622
1.1518467
1.1544904
1.1551057
1.1535274
1.1498293
1.1462218
1.143338
1.1413157
1.1378802
1.134564
1.1308604
1.1262628
1.1192082
1.11065
1.1020729
1.0944374
1.0879094
1.0824118
1.0794559
1.0786795
1.079179
1.0779959
1.0761753
1.0732368
1.0690509
1.0626878
1.0554933
1.0489964
1.0438927
1.0398807
1.0363763
1.0344241
1.0336858
1.0337646
1.0327486
1.0326602
1.0340002
1.0372959
1.0417523
1.0484839
1.0584082
1.0713448
1.0859745
1.1007897
1.1163262
1.1317771
1.1464046
1.1577193
1.1675316
1.1756212
1.181463
1.1829441
1.1801547
1.1736484
1.1638823
1.1513416
1.1371902
1.1248411
1.1157099
1.109933
1.1044384
1.0992678
1.0924967
1.0829399
1.0695519
1.0547968
1.041987
1.0333328
1.0288771
1.0268212
1.0259131
1.0231323
1.0163194
1.00349
0.98916372
0.97782146
0.97418761
0.98025967
0.9974859
1.024504
1.0568732
1.0884245
1.113638
1.1309788
1.1400005
1.142272
1.1387486
1.1345784
1.132375
1.1334989
1.136778
1.1422511
1.1494812
1.1571005
1.1630608
1.1656779
1.1657495
1.1630021
1.1574209
1.1473783
1.1358263
1.1239605
1.1129437
1.1024577
1.0941192
1.0893574
1.0884677
1.0906075
1.0946709
1.1014902
1.1104629
1.1209003
1.1303291
1.140332
1.1507341
1.1612
1.1699371
1.1769385
1.1822019
1.1850555
1.1843553
1.1793575
1.1715978
1.1617151
1.150418
1.1366839
1.1231849
1.1106696
1.0997224
1.089615
1.0817757
1.0776528
1.0777654
1.081536
1.0880334
1.0979922
1.110369
1.1237966
1.1349722
1.145055
1.1536206
1.1605584
1.1646954
1.167198
1.1692557
1.1710469
1.1716983
1.1701884
1.1675308
1.1635062
1.1580701
1.1497089
1.1410208
1.1327872
1.1254636
1.1178208
1.1101643
1.102388
1.0934721
1.0818368
1.0665609
1.0494637
1.0317391
1.0150527
0.99941454
0.98887452
0.98496372
0.98829603
0.99720115
1.0113433
1.0298511
1.0507741
1.0714308
1.0895151
1.1052787
1.1181413
1.1278838
1.1327837
1.1354129
1.136663
1.1373905
1.1370305
1.1368872
1.1379149
1.1397613
1.1407697
1.1390113
1.1345321
1.1262906
1.1138041
1.0956295
1.0751553
1.0543403
1.0351167
1.0177967
1.0041735
0.9953689
0.99124096
0.99071297
0.99289481
0.99905034
1.0091824
1.0230365
1.0381188
1.0553985
1.0735208
1.0907912
1.1042915
1.1135889
1.1191035
1.1212549
1.1202627
1.1166215
1.1129059
1.110145
1.1088351
1.1070466
1.1065835
1.1071257
1.1081357
1.1076548
1.1059663
1.1035855
1.1003819
1.0955648
1.0885208
1.0808888
1.0729299
1.0647794
1.0545901
1.0446723
1.035386
1.0270082
1.0184937
1.0109184
1.0054107
1.0022684
1.0009776
1.001019
1.0038568
1.0096893
1.0186064
1.0288403
1.0422008
1.0584458
1.076816
1.0948495
1.1118164
1.1271345
1.1398652
1.1489125
1.1539361
1.1572807
1.1601834
1.1636213
1.166106
1.1697432
1.1741519
1.1785535
1.1807888
1.1811423
1.1804222
1.1789814
1.1765105
1.1726682
1.1690611
1.1657021
1.1623706
1.1569373
1.1514269
1.1460505
1.1409054
1.134651
1.1278292
1.1209669
1.1138626
1.1057585
1.0962242
1.087063
1.0789753
1.07254
1.0664098
1.0626341
1.0612497
1.0620062
1.0633839
1.0658903
1.0702783
1.0767534
1.084834
1.0940171
1.1055484
1.1190013
1.1334899
1.1459849
1.1575392
1.1674526
1.1752849
1.1796407
1.1816462
1.1826118
1.1829165
1.1818321
1.1784049
1.1736747
1.1673928
1.1596141
1.1490096
1.138801
1.1302469
1.1240611
1.1188664
1.1145634
1.1104903
1.1051612
1.0969051
1.085098
1.0718985
1.0586908
1.046782
1.0353262
1.0265052
1.020028
1.0152111
1.0103414
1.0061756
1.0040488
1.0049117
1.0089451
1.0159493
1.0268106
1.0404503
1.0552836
1.0680451
1.0796285
1.0897267
1.0984873
1.1050856
1.110777
1.1165542
1.1222324
1.1265168
1.1281137
1.1279274
1.1258409
1.122091
1.1153738
1.1085963
1.1023707
1.0965729
1.0890076
1.0791061
1.0662723
1.0496397
1.028619
1.0039606
0.97943127
0.95790857
0.94185747
0.93098531
0.9273987
0.92995212
0.93639681
0.94290019
0.9479334
0.95082513
0.95113844
0.94853129
0.94327294
0.93799441
0.93410704
0.93279767
0.93310188
0.93765303
0.94679618
0.9601523
0.97530215
0.99135482
1.0073125
1.0215829
1.0323511
1.0386792
1.0426145
1.0455181
1.0489207
1.0522505
1.0583201
1.0670703
1.0773549
1.0859985
1.0916712
1.0934219
1.090373
1.0820049
1.0689034
1.0542344
1.0398598
1.0270283
1.0144202
1.0039681
0.99562386
0.98956279
0.98533561
0.98502862
0.9910642
1.0045939
1.0247581
1.0490914
1.0758156
1.1014316
1.1228638
1.1366253
1.1447348
1.1489926
1.1517544
1.1537715
1.1565273
1.1602914
1.1636474
1.1641987
1.1600931
1.1524344
1.1421909
1.1309016
1.1183869
1.1076279
1.0989819
1.0919194
1.0842572
1.0758326
1.0669703
1.0578755
1.0485526
1.0394094
1.032899
1.0299986
1.0312674
1.0349939
1.0430297
1.0548683
1.0694027
1.0837778
1.0969812
1.1082745
1.1166335
1.1209555
1.1208523
1.1185174
1.1151139
1.111564
1.1065427
1.1020934
1.098097
1.0941818
1.0887177
1.0824269
1.0763439
1.0708479
1.0654715
1.0596008
1.0543571
1.0492469
1.0436487
1.0353187
1.0264559
1.0177387
1.0100401
1.0030118
0.99823513
0.99697608
0.99932024
1.0042655
1.0107037
1.01948
1.030209
1.0425293
1.0544199
1.0676308
1.0820063
1.0970771
1.1108758
1.1231665
1.1336532
1.1413413
1.1447105
1.1427389
1.1369811
1.1283607
1.1182993
1.1067498
1.0975361
1.0920671
1.0907471
1.0916682
1.0940936
1.0968608
1.0981745
1.096161
1.090007
1.0817888
1.0728752
1.0646459
1.0563912
1.0505586
1.0471661
1.0457187
1.0444086
1.0434985
1.0434874
1.0442599
1.0449219
1.0444346
1.0433932
1.0411578
1.0372735
1.0301408
1.0224125
1.0154907
1.0107707
1.0080942
1.0085546
1.0124955
1.0189246
1.0258462
1.0314665
1.0362443
1.0397633
1.0418682
1.0408382
1.0389169
1.0364261
1.0335702
1.0293613
1.0249258
1.0214263
1.0192024
1.0179846
1.0175094
1.0175967
1.0169228
1.0145048
1.0096802
1.0045795
1.0002059
0.99701458
0.99404767
0.99068996
0.98549206
0.97735963
0.96680809
0.95686182
0.95198767
0.95464135
0.96436306
0.97676018
0.98707719
0.9896641
0.98226957
0.96742544
0.9532629
0.94824233
0.9566985
0.97589739
0.99686523
1.0082919
1.0013194
0.97607863
0.94313693
0.92209349
0.9299502
0.9726104
1.0381242
1.0988849
1.1180889
