0.88414077
0.88202583
0.91490916
0.95665195
0.98164956
0.98018512
0.95911181
0.93432094
0.91982088
0.9211646
0.93285777
0.94334561
0.94375201
0.9334964
0.91861857
0.90648572
0.90256037
0.90753999
0.91750876
0.92620951
0.93117398
0.93355057
0.93650796
0.9413622
0.94952006
0.95973747
0.96956327
0.97600869
0.97970599
0.9821517
0.9844863
0.98610618
0.98699762
0.98627968
0.98259519
0.97614696
0.96953404
0.9643552
0.96041256
0.95796073
0.95704905
0.95655738
0.95447536
0.95217253
0.95167501
0.95440216
0.95928404
0.96726226
0.97722543
0.98731086
0.99419807
0.99967684
1.0045848
1.0096553
1.0141138
1.0196584
1.0256523
1.0305606
1.032979
1.0346192
1.0363774
1.038327
1.0407301
1.0445728
1.0489099
1.0512373
1.0507223
1.0477351
1.0423989
1.0339645
1.0243559
1.0152398
1.007321
0.99927318
0.99276877
0.98825782
0.98570479
0.98314714
0.98270094
0.98453271
0.98824608
0.99216501
0.99767373
1.0043254
1.0109203
1.0160999
1.0210543
1.0256769
1.0289816
1.0306349
1.0317053
1.0318691
1.0294828
1.0245216
1.0178064
1.0094955
0.99862016
0.98695511
0.97612315
0.96692054
0.95814763
0.95168398
0.94799987
0.94692216
0.94616627
0.94772572
0.95150681
0.95687139
0.96192309
0.96808008
0.97485822
0.98104448
0.98533233
0.9891641
0.99267335
0.99512442
0.99643219
0.99794387
0.99952809
0.9996137
0.99810599
0.99568532
0.99231632
0.98681093
0.98067942
0.97527847
0.97111426
0.96668167
0.96350993
0.96179978
0.9612854
0.95990259
0.96000152
0.9620817
0.96617427
0.97100483
0.97823391
0.98737144
0.99694359
1.0052183
1.013031
1.0201088
1.0256078
1.0295775
1.0335785
1.0377579
1.0407136
1.0422186
1.0425578
1.0412149
1.0365961
1.0299057
1.0224151
1.0147399
1.0056318
0.99687308
0.98903729
0.98232991
0.97520897
0.97040367
0.96856244
0.96944394
0.97107764
0.97429822
0.97803547
0.98079061
0.98145447
0.98203321
0.98335255
0.98505371
0.98680959
0.98915057
0.99097093
0.99004538
0.98620865
0.98068507
0.97434075
0.96681233
0.95992045
0.95478173
0.95133936
0.94757203
0.94473911
0.94312626
0.9427455
0.94174765
0.9424009
0.94481687
0.94850958
0.95182126
0.95642422
0.96217303
0.96817445
0.97333421
0.97905879
0.98533859
0.99132372
0.99692179
1.003516
1.01098
1.0175628
1.0226462
1.0260938
1.0269747
1.0233818
1.0163997
1.007405
0.99731319
0.98530529
0.97360252
0.9631746
0.95451061
0.94621379
0.94098612
0.93933837
0.94082385
0.94329066
0.9473835
0.95203293
0.95595684
0.95842322
0.96166989
0.96663887
0.97287738
0.97974905
0.987342
0.99425158
0.99818432
0.99910889
0.9984533
0.99709659
0.99429533
0.99113192
0.98793342
0.98412486
0.97768938
0.97050637
0.96392527
0.95900259
0.95446712
0.95258146
0.95301133
0.95471643
0.95572163
0.95786934
0.96153451
0.96634532
0.97132634
0.97737736
0.98348886
0.98765436
0.98885482
0.98809952
0.98559666
0.98052441
0.97359003
0.96626261
0.95931078
0.95235878
0.94758331
0.94670627
0.94991924
0.95455197
0.96029215
0.9655871
0.96915521
0.96903676
0.96864964
0.96991569
0.97374747
0.97867287
0.98520039
0.9915488
0.99576657
0.9970255
0.99821923
1.0012244
1.0062176
1.0124435
1.0191118
1.0235385
1.0224556
1.01575
1.0058137
0.99521248
0.98503681
0.97764659
0.97379789
0.97261714
0.97146449
0.97141727
0.97309627
0.97687952
0.98087512
0.98640006
0.9923079
0.99709798
0.99897697
1.0000672
1.0013674
1.003058
1.0044339
1.0061624
1.0070804
1.0054091
1.0009002
0.99561926
0.99090549000000006
0.98675787
0.98394849
0.98301154
0.98315316
0.98236206
0.98144799
0.98130521
0.98203043
0.98150466
0.98009642
0.97672796
0.97028049
0.95881644
0.94589806
0.93407203
0.92551416
0.92039707
0.92064904
0.92489043
0.93002369
0.93261475
0.93239313
0.92874341
0.92119746
0.91075649
0.90035744
0.8916955
0.88490887
0.88111115
0.88126233
0.88440387
0.88730043
0.88878735
0.88781319
0.88365591
0.87532581
0.86629467
0.85940794
0.85659786
0.85668698
0.86121438
0.86888409
0.87786035
0.88581598
0.89470758
0.90532737
0.91761516
0.93054789
0.94480352
0.95909465
0.97131341
0.98073041
0.98908487
0.99718962
1.0042145
1.0100106
1.0144691
1.0163695
1.0135741
1.0074136
1.0000953
0.99348481
0.98724657
0.98318716
0.98107608
0.97972813
0.97624865
0.97212843
0.9676483
0.96292115
0.95695877
0.95164021
0.94744311
0.94472588
0.94425957
0.94921781
0.96077359
0.97772177
0.99766586
1.0184235
1.0366224
1.0489033
1.0552768
1.0582943
1.0605067
1.062614
1.0662547
1.0713505
1.0761595
1.0772237
1.0752336
1.0710208
1.0658136
1.0589207
1.0532038
1.0485782
1.0437174
1.0359316
1.0262194
1.0145022
1.000713
0.98505493
0.97021201
0.95713766
0.94544167
0.93503497
0.92705747
0.92133897
0.91657302
0.91306219
0.91181876
0.91293933
0.91505981
0.91898868
0.92515332
0.93313373
0.94072282
0.94889003
0.9575804
0.9663652
0.97291721
0.97914074
0.98499474
0.99012412
0.99327985
0.99673965
1.0009664
1.005511
1.0094409
1.0139734
1.0184414
1.0210576
1.0208777
1.0187703
1.0145851
1.0072251
0.99744025
0.98677777
0.97593041
0.96426192
0.95347887
0.94478441
0.93827355
0.93201211
0.92693656
0.92303184
0.92026193
0.91728787
0.91694971
0.92016185
0.92680251
0.93480852
0.94445528
0.95412772
0.96188209
0.96639304
0.96962598
0.97268985
0.97573708
0.9790512
0.98367344
0.98898368
0.99317625
0.99629736
0.9993086
1.0022362
1.0033558
1.002748
0.99988037
0.99375434
0.98262434
0.96891602
0.95470687
0.94180805
0.92983334
0.92126961
0.91590842
0.91282198
0.91037849
0.91018822
0.91232926
0.91595369
0.9196203
0.92382287
0.92797857
0.93144898
0.93511227
0.941484
0.95124669
0.9624172
0.97278913
0.97984513
0.9806318
0.97261711
0.95805049
0.94097132000000006
0.9254042
0.91277607
0.90563109
0.90318886
0.90275982
0.89958606
0.89397577
0.88588041
0.87614734
0.86508733
0.85568531
0.84809854
0.84076116
0.83159758
0.82137575
0.81071173
0.80077077
0.79421047
0.79473053
0.80325141
0.81723822
0.83348131
0.84843902
0.85843114
0.86063517
0.85726674
0.85252724
0.85058523
0.85282466
0.86140428
0.87503239
0.8905133
0.90275586
0.91197542
0.91832595
0.92295685
0.92637719
0.93173359
0.93924114
0.94724284
0.95322843
0.95712243
0.9580509
0.95501313
0.9482834
0.9399886
0.93120935
0.92178245
0.91270318
0.90530098
0.89968784
0.89433344
0.88966561
0.88599451
0.88319186
0.87984932
0.8776724
0.87760762
0.88010066
0.88348878
0.88945035
0.89774103
0.90755311
0.9169472
0.92707719
0.93756808
0.94738188
0.95523865
0.96229662
0.96854922
0.97322587
0.97624887
0.97904909
0.98170548
0.98278803
0.98203631
0.97975585
0.97549549
0.96781852
0.95812762
0.94805532
0.93871694
0.92943443
0.92221716
0.91751198
0.91494754
0.91218726000000006
0.91084967
0.9109843
0.91246534
0.91422806
0.91820903
0.92448262
0.93208992
0.93953233
0.94754206
0.95559663
0.96249514
0.96792119
0.97332236
0.97901063
0.98387924
0.98799367
0.99193019
0.99528504
0.99629302
0.99574257
0.99439421
0.99230627
0.98771765
0.98190824
0.97508547
0.9672483
0.95692531
0.94696473
0.93841302
0.9316658
0.92563254
0.92185661
0.91991708
0.91878773
0.91762017
0.91830657
0.92150312
0.92670715
0.93350104
0.94239325
0.95233649
0.96106005
0.96813645
0.97441416
0.98025576
0.98469155
0.98897942
0.99395033
0.99946126
1.0034539
1.0070505
1.010284
1.0126623
1.011648
1.0087197
1.0035826
0.99590878
0.98487202
0.97328428
0.96238913
0.95252908
0.94342157
0.93660937
0.93187336
0.92807787
0.9249981
0.92410028
0.92566066
0.92852318
0.93262744
0.93829055
0.9449117
0.95076256
0.95684693
0.96428466
0.97342298
0.98244913
0.99209973
1.0016739
1.0100157
1.0144105
1.0168526
1.0179677
1.0181126
1.0162927
1.0143147
1.0118018
1.0074973
1.0001552
0.99141543
0.98189094
0.97149981
0.96084524
0.95178678
0.94459214
0.9380657
0.932431
0.9285006
0.92613681
0.92382282
0.922381
0.92245772
0.92408654
0.92575556
0.92903888
0.93437274
0.94151913
0.94807588
0.95532962
0.9627218
0.96948085
0.97412974
0.97873608
0.98386998
0.98929345
0.99422148
0.99983043
1.0054752
1.0094029
1.0107058
1.0103788
1.0085436
1.0043528
0.99865431
0.99287414
0.98722624
0.98022881
0.97272294
0.96532799
0.95806491
0.9494737
0.9413953
0.93463061
0.92947093
0.92424911
0.9209144
0.91940566
0.91917001
0.91871886
0.91971015
0.92236087
0.92632196
0.93101199
0.93785851
0.94651578
0.95529605
0.9629114
0.96961903
0.9748266
0.97723428
0.97764616
0.97795099
0.97909844
0.98019802
0.9822989
0.98575309
0.989858
0.99204626
0.99330981
0.99378623
0.99332213
0.98975044
0.98507113
0.97921844
0.97172945
0.96123253
0.95000266
0.93882943
0.92787817
0.91698322
0.90815777
0.90171853
0.896879
0.89337636
0.89231886
0.8935402
0.89563239
0.89861717
0.90327534
0.90976909
0.91719289
0.9269871
0.94010758
0.9561885
0.9724266
0.98847697
1.0028247
1.0140556
1.0198847
1.0231426
1.02548
1.0281577
1.0307183
1.0350291
1.0403081
1.0445659
1.0457268
1.0448731
1.0424128
1.038356
1.0334962
1.029804
1.0271714
1.0233799
1.0172884
1.0086116
0.99678492
0.9807712
0.96288541
0.94584503
0.9315427
0.91945397
0.91116078
0.90640465
0.9040898
0.90138813
0.89971675
0.89920489
0.89985528
0.90066265
0.90346
0.90834284
0.91476988
0.9222008
0.93245786
0.94576587
0.960902
0.97666287
0.99271882
1.0073505
1.0180383
1.0246915
1.0287297
1.0311645
1.0316028
1.0318281
1.0328605
1.0345774
1.0349581
1.0354486
1.0364686
1.0379434
1.0375611
1.0368806
1.0351678
1.031208
1.0229719
1.0122553
0.99966378
0.98551108
0.97004276
0.95575302
0.9434569
0.93273338
0.92348123
0.91682787
0.91259707
0.90936559
0.90706191
0.90622714
0.90656822
0.90655872
0.90708889
0.9090345
0.91272119
0.91682461
0.92298898
0.93151843
0.94193115
0.95150055
0.96141852
0.9709371
0.97911809
0.98435569
0.98877832
0.99298542
0.99686049
0.99988105
1.0036304
1.0077537
1.0106162
1.011213
1.0102027
1.0072002
1.0009001
0.99190323
0.98168088
0.97086112
0.95872011
0.94686708
0.93652694
0.9280158
0.91983316
0.91334118
0.90876586
0.90591478
0.90289834
0.90173829
0.9027623
0.90588068
0.909853
0.91625657
0.92478417
0.93418844
0.94286313
0.95159753
0.95997871
0.96689846
0.97214481
0.97724626
0.98254214
0.98696344
0.99074304
0.9945598
0.99790543
0.99866934
0.99730468
0.99430562
0.98972531
0.98210882
0.97344451
0.96458133
0.95578161
0.9452264
0.93513179
0.92580872
0.91729715
0.90876151
0.90258443
0.89929142
0.89837631
0.89873043
0.90123603
0.90533508
0.90977603
0.91430312
0.92046076
0.92872892
0.93816545
0.94879341
0.96080325
0.9731516
0.98335939000000006
0.99163664
0.99858372
1.0046249
1.008707
1.0129447
1.0180081
1.0235814
1.0268911
1.0290347
1.0292455
1.0267072
1.0200984
1.0119317
1.0033401
0.99480506
0.98635753
0.97990055
0.97530846
0.97109542
0.9662608
0.9613712
0.95610744
0.94939942
0.9420255
0.935684
0.931251
0.92807741
0.92745292
0.93006099
0.93542525
0.94099804
0.94719176
0.9535976
0.95980634
0.96398796
0.96867238
0.97457212
0.98163656
0.98816
0.99515754
1.0016481
1.0060437
1.0069975
1.006149
1.0040415
1.000358
0.99531796
0.99033951
0.98530624
0.97882941
0.97124292
0.96370796
0.95658284
0.94888499
0.94187797
0.93637368
0.93235834
0.92823149
0.92558572
0.92504708
0.92683199
0.92921891
0.93409389
0.94117647
0.94950937
0.95698658
0.96467478
0.97215946
0.97851399
0.9827563
0.98644593
0.9897879
0.99200674
0.99292822
0.9939071
0.99496155
0.99471118
0.9932615
0.99143706
0.98909003
0.9845482
0.97868489
0.97221156
0.96509738
0.95551396
0.94504053
0.93426437
0.9234766
0.91120699
0.90017284
0.89118556
0.88454159
0.87931996
0.87743298
0.87883728
0.88257863
0.88739445
0.89427871
0.90293124
0.9122804
0.92200258
0.933236
0.94583793
0.95827443
0.97035006
0.98249342
0.99429097
1.0040414
1.0126804
1.0210705
1.0293124
1.0355834
1.0411781
1.0462311
1.0505152
1.0520315
1.0530721
1.0539405
1.0542322
1.0520577
1.0484006
1.0424252
1.0329038
1.0190564
1.0031351
0.98650929
0.96983274
0.95417601
0.94151445
0.93208404
0.92454742
0.91876358
0.91523749
0.91374696
0.91288456
0.91358735
0.91671896
0.92250026
0.92940281
0.93878394
0.95067279
0.96424672
0.97634693
0.98765165
0.99707973
1.0035736
1.0056401
1.0057482
1.0049758
1.0036204
1.0013716
0.99983079
0.99855168
0.99584609
0.99082144
0.98442072
0.9766236
0.96645028
0.95472127
0.94296568
0.93177267
0.92035275
0.91036538
0.90303703
0.89855135
0.89505553
0.89359212
0.89408409
0.89624723
0.89830534
0.9027395
0.91019385
0.92048385
0.93167907
0.9443735
0.95725101
0.96850524
0.97669816
0.98350289
0.98965364
0.99493324
0.99940065
1.0041718
1.0087525
1.0113319
1.0118882
1.0113844
1.0099829
1.0063463
1.0013606
0.99549471
0.98851998
0.97880634
0.96833044
0.95827318
0.94943062
0.94052189
0.93388538
0.92966339
0.92746863
0.9259524
0.92707577
0.93114467
0.93748187
0.94466639
0.95317052
0.96185922
0.96881181
0.97322086
0.97651294
0.97948767
0.98190019
0.98477158
0.98936916
0.99546977
1.0017239
1.0076371
1.0116425
1.0122017
1.0085526
1.0030644
0.99739864
0.99224153
0.98630096
0.97908833
0.96873337
0.95520096
0.94134209
0.93290691
0.93284015
0.93967191
0.94798245
0.95149709
0.94605469
0.93415524
0.92574868
0.93207868
0.95695719
0.99231921
1.0217337
1.0280051
1.0046708
0.96336611
0.93220675
0.93918551
0.99407602
1.0764513
1.1406543
