0.91294553
0.91150414
0.94381405
0.97487868
0.98060651
0.9600805
0.93076946
0.912918
0.91848803
0.94357615
0.97349913
0.99404658
1.000821
0.99865728
0.99541715
0.99789756
1.0069857
1.0182252
1.0254328
1.0269197
1.0245172
1.0212784
1.0202151
1.0229967
1.0285341
1.0328034
1.0342931
1.0326448
1.0287858
1.0245196
1.0236206
1.0284553
1.0373708
1.0487473
1.0586284
1.0623011
1.0560083
1.0427753
1.0259705
1.0080767
0.99123763
0.97659418
0.96243419
0.94495813
0.92519608
0.90473403
0.88537424
0.86845422
0.85718987
0.85191086
0.85066505
0.85339374
0.86070294
0.87246282
0.88635284
0.90363417
0.92267208
0.94048713
0.95473189
0.9655713
0.97261005
0.97471396
0.97412454
0.97285198
0.97205711
0.9715844
0.97439104
0.98069312
0.98853971
0.99656405
1.0045381
1.0116358
1.0160509
1.0204387
1.02588
1.0314222
1.03445
1.0347967
1.0313633
1.023411
1.014005
1.0071799
1.0046861
1.0035467
1.0023367
0.99678834
0.98319748
0.96131434
0.93598061
0.91228556
0.89292319
0.88044248
0.87423323
0.87149103000000006
0.86889312
0.86827607
0.87129106
0.87867084
0.89099575
0.90791185
0.92656158
0.94246724
0.95587785
0.96740406
0.97767401
0.98677638
0.99646041
1.0059046
1.0126221
1.0165974
1.018792
1.0195751
1.0170837
1.0135589
1.0088936
1.002232
0.99359709
0.98526999
0.97761906
0.96838801
0.95747228
0.94435701
0.92859426
0.91006474
0.89375461
0.88289187
0.87815385
0.8789875
0.88384973
0.88899298
0.88948651
0.88563077
0.87888518
0.87138002
0.86496923
0.8629027
0.86510152
0.86867606
0.87215231
0.87517978
0.87821232
0.88152596
0.88979574
0.90465977
0.92468167
0.946552
0.967333
0.98316466
0.99084825
0.9928412
0.99321613
0.99551233
1.0006336
1.0105778
1.0232195
1.0342699
1.0411134
1.0436611
1.0420039
1.0350805
1.0252826
1.0134115
0.99912811
0.98187138
0.96452396
0.94890136
0.93520693
0.92455697
0.91709403
0.91074768
0.90086194
0.88736238
0.86969859
0.8482341
0.82510757
0.80491718
0.79041876
0.78150054
0.77917271
0.78321938
0.79256322
0.80553311
0.82405448
0.84783284
0.874157
0.89991985
0.92215557
0.937541
0.94348083
0.94363134
0.94241783
0.94358782
0.94893327
0.96025685
0.97541637
0.98993523
1.0019872
1.0113584
1.0179497
1.019949
1.0195661
1.0164839
1.0095048
0.9984589
0.98602285
0.97390502
0.96184936
0.95145014000000006
0.94310674
0.93595398
0.92803425
0.92112463
0.91524522
0.9086909
0.89992331
0.88831915
0.87294623
0.85273782
0.83146458
0.8128344
0.79934447
0.7916055
0.79104391
0.79659144
0.80594255
0.81933008
0.83771107
0.8607819
0.88523797
0.91017938
0.93209152
0.94733831
0.95471487
0.9570135
0.95718426
0.95677655
0.95894318
0.96455234
0.97211464
0.97840554
0.98414964
0.98882189
0.99115944
0.99111769
0.98960657
0.98620257
0.97886458
0.96961294
0.95984211
0.95022694
0.94064931
0.93307516
0.92706789
0.92015082
0.91155353
0.90127685
0.88896206
0.87282694
0.85571596
0.83909606
0.82365674
0.81007114
0.80043899
0.79495473
0.79165741
0.79106877
0.79380493
0.80032098
0.81043679
0.82720023
0.85084279
0.87885266
0.90823074
0.93606276
0.95854901
0.97167101
0.97688901
0.97642549
0.97284802
0.96850764
0.96739803
0.97040172
0.97566721
0.98263111
0.99110833
1.000503
1.0086724
1.0176372
1.026647
1.0330178
1.0339101
1.029086
1.0188598
1.0043693
0.99105988
0.98378271
0.9840552
0.98841805
0.99365745
0.99389235
0.98385182
0.9630196
0.93614645
0.90914589
0.88560658
0.86965715
0.86106549
0.85642852
0.85154149
0.84631958
0.84125196
0.83696345
0.83630719
0.84167853
0.85331881
0.86848319
0.8876535
0.90869138
0.9281773
0.94306348
0.95257544
0.9559283
0.95273885
0.94695656
0.94259368
0.9419964
0.94464077
0.95170978
0.9614545
0.97111362
0.98013507
0.99000591
1.0011522
1.0114253
1.0210071
1.0279971
1.0297571
1.0245161
1.01503
1.0037627
0.99207318
0.98232663
0.97563232
0.97047871
0.96237511
0.95116673
0.93608019
0.9170771
0.8956028
0.87528307
0.85772109
0.84173148
0.82770124
0.81568996
0.8059424
0.79898014
0.79938934
0.80931415
0.82763977
0.85160696
0.87738046
0.89975696
0.91371259
0.92040847
0.92237918
0.92238834
0.92223359
0.92451623
0.92871398
0.9324714
0.93607742
0.9411136
0.94867362
0.95725257
0.96838742
0.98016524
0.98924811
0.99330456
0.99318141
0.98951485
0.98198896
0.97297336
0.96390414
0.95482398
0.9443435
0.9345652
0.92576093
0.91676091
0.90708271
0.89730963
0.88701712
0.87432976
0.86123863
0.84908539
0.83830766
0.8284443
0.82117297
0.81647471
0.81313554
0.8122101
0.81555114
0.82426771
0.83712405
0.85581091
0.87861972
0.90165701
0.9208285
0.93434474
0.94062831
0.93870144
0.93210872
0.92483446
0.91960896
0.91668519
0.91817951
0.92328384
0.92989718
0.93773821
0.94837268
0.96242611
0.9781877
0.9961914
1.0144931
1.0295689
1.0377183
1.0389415
1.033044
1.0196964
1.0011826
0.98047658
0.95964114
0.93863864
0.92095013
0.90770598
0.89844084
0.89210377
0.88866981
0.88653512
0.88283952
0.87782075
0.87234245
0.86734143
0.86312539
0.86288272
0.86726204
0.87470694
0.88373806
0.89324496
0.90118638
0.90480318
0.90565658
0.90509371
0.90406848
0.90305628
0.90443738
0.90832078
0.91286985
0.91795156
0.92374734
0.92954717
0.93251469
0.93424764
0.93416654
0.93087943
0.92380069
0.91487843
0.90510005
0.89412989
0.88436979
0.87731192
0.87267573
0.86802096
0.86393928
0.85926714
0.85215467
0.84258181
0.83241744
0.82258144
0.81186847
0.80212291
0.79391648
0.78710541
0.7814618
0.77982898
0.7833522
0.7911023
0.80318223
0.81960869
0.83961687
0.86104251
0.88594748
0.91394114
0.942412
0.96757775
0.98669426
0.99655253
0.99487489
0.98509065
0.97258548
0.96248017
0.95731994
0.96037771
0.97036118
0.98307762
0.99524067
1.0058083
1.0140979
1.0187429
1.0220794
1.0249817
1.0268233
1.0261245
1.0241932
1.0213611
1.0171095000000001
1.012808
1.0097814
1.0074247
1.0019918
0.99324131
0.97971518
0.96053665
0.93682662
0.91295015
0.8921778
0.87510872
0.86318256
0.85616483
0.85259578
0.85049907
0.85233146
0.85936001
0.8713151
0.88778047
0.9077675
0.92818845
0.94451691
0.95671429
0.9648928
0.9692298
0.96979164
0.96895507
0.96715932
0.96351695
0.95961366
0.95778903
0.95946684
0.96341061
0.97164493
0.98280167
0.99372241
1.0015904
1.0062129
1.0070888
1.0032711
0.99744183
0.99186832
0.98720633
0.98180297
0.97669047
0.97060106
0.96129135
0.94828337
0.93309107
0.91655439
0.89775925
0.87909014
0.86195521
0.84721
0.83553813
0.83016709
0.83188903
0.83859748
0.84863655
0.86016344
0.87120071
0.87956591
0.88875564
0.90066503
0.91516944
0.93044585
0.94459306
0.95396546
0.95497707
0.94949475
0.94154119
0.93540202
0.93338838
0.93885384
0.95062094
0.96453789
0.97739522
0.98810272
0.99579154
0.99891163
0.99994053
0.99999151
0.99895557
0.99612759
0.99353017
0.99144574
0.98845785
0.98464251
0.98019348
0.97442631
0.96502882
0.95414133
0.94224815
0.92881942
0.91337666
0.89740262
0.88173186
0.86650193
0.85477252
0.84862168
0.84768391
0.84868018
0.85068022
0.85186105
0.85164924
0.85307592
0.86102759
0.87769875
0.90016257
0.9250459
0.94607515
0.95757387
0.95755762
0.95104419
0.94401364
0.94046589
0.94323025
0.95164357
0.96178662
0.96786535
0.97053416
0.97065504
0.96917808
0.96677462
0.96447069
0.96073063
0.95266594
0.94164574
0.93022826
0.92064346
0.91298038
0.90884704
0.90621258
0.9011817
0.89162534
0.8781787
0.86196298
0.8432452
0.82561038
0.81115345
0.8006284
0.79395864
0.79318459
0.79821608
0.80685694
0.81808815
0.83125917
0.84569242
0.86004904
0.87749992
0.89866332
0.92161867
0.94289905
0.95965877
0.96842668
0.96670435
0.95773575
0.94653195
0.93753703
0.93235206
0.9333136
0.93852483
0.94392756
0.94722552
0.94877154
0.94915266
0.9477483
0.94685638
0.94665738
0.94571921
0.9421459
0.93730322
0.93177987
0.92519679
0.91873094
0.91319804
0.90765166
0.89873794
0.88726565
0.87322669
0.85692631
0.8397718
0.82517391
0.81461252
0.80685622
0.80209189
0.79984694
0.79946215
0.80041689
0.8064649
0.81965101
0.83964755
0.86500364
0.89290155
0.91822223
0.93487214
0.94203866
0.94043728
0.93227171
0.92063877
0.91101501
0.90624196
0.90630285
0.91161532
0.9216578
0.93407884
0.94416122
0.95163781
0.95529834
0.95454906
0.95057188
0.94709448
0.94585436
0.94540503
0.94530866
0.9439542
0.93936588
0.92988544
0.91876957
0.90814677
0.89822462
0.88846253
0.87793774
0.86447557
0.84557654
0.82380577
0.80240974
0.7842834
0.77104952
0.76508595
0.76613817
0.77238789
0.78411607
0.80198957
0.82525041
0.85012726
0.87521329
0.89674117
0.91122623
0.91795879
0.92039264
0.92211524
0.92492076
0.9314011
0.9414464
0.95252706
0.96074188
0.96632583
0.96888853
0.96771426
0.9633949
0.9572975
0.94925212
0.93725738
0.92299369
0.90737481
0.89075753
0.87315821
0.85697922
0.84276517
0.82945245
0.81759763
0.80805053
0.80070876
0.7934385
0.78764044
0.78276532
0.77736506
0.77050806
0.76376178
0.75847314
0.75524556
0.75715564
0.76598015
0.78087644
0.79796617
0.81559177
0.8307666
0.84121453
0.84809412
0.85518938
0.86513839
0.87720385
0.89160722
0.90551374
0.91495129
0.91704513
0.91389426
0.90797052
0.90110952
0.89636102
0.89553592
0.89801335
0.9004504
0.9035929
0.90677865
0.90890263
0.90925056
0.90884357
0.90740092
0.90343863
0.89842992
0.89410712
0.89158036
0.89043082
0.89233248
0.89631383
0.89959065
0.90010767
0.89739454
0.89125808
0.88140155
0.87139458
0.86399484
0.86046796
0.86042754
0.86440846
0.87075533
0.87670401
0.88187124
0.88688705
0.89206055
0.89601768
0.90070161
0.90582169
0.9101957
0.91327774
0.91645758
0.91976063
0.92132776
0.92140714
0.91973256
0.9156298
0.90810805000000006
0.90022265
0.89333244
0.8868848
0.8801775
0.87262809
0.86246094
0.84719801
0.82930635
0.81157955
0.7964552
0.78524203
0.78016852
0.78006899
0.78115246
0.78112423
0.7786975
0.77302711
0.7628748
0.75193709
0.74259048
0.73623267
0.73396717
0.7377477
0.74731887
0.7602088
0.77603968
0.7939188
0.81228747
0.82885937
0.84489645
0.86023426
0.87381169
0.8856505
0.89652845
0.90587572
0.91136936
0.91398805
0.91391888
0.91110957
0.90575842
0.90088692
0.89782563
0.89592725
0.89542641
0.8961757
0.89688672
0.89462
0.89095455
0.88637043
0.88082879
0.8744577
0.86894302
0.86454136
0.85996294
0.85642054
0.8549057
0.85532311
0.85579685
0.85701231
0.85785029
0.85624441
0.85154872
0.84492487
0.8369532
0.82659746
0.81611212
0.80699654
0.8003219
0.79693893
0.79993334
0.8095381
0.82274513
0.83693537
0.84975279
0.85951258
0.86514786
0.87160415
0.88206088
0.89682158
0.91340992
0.92875179
0.93829665
0.93835458
0.93149806
0.92284775
0.91724061
0.91633826
0.92177423
0.93070206
0.93837047
0.94243287
0.944064
0.94514428
0.94603274
0.94903384
0.95362786
0.95745717
0.95808909
0.95696489
0.95540668
0.95392428
0.95404299
0.95619929
0.95865666
0.95736477
0.95251718
0.94382889
0.93152971
0.9170662
0.90394541
0.89408811
0.88709959
0.88405316
0.88469947
0.88733774
0.88910763
0.89085932
0.89268613
0.89454714
0.89793811
0.9048673
0.91500701
0.92494659
0.93354204
0.93852033
0.93790775
0.93118556
0.92203124
0.91324354
0.90574059
0.90090544
0.89882843
0.89770797
0.8937983
0.888468
0.88224107
0.87554525
0.86932268
0.86593373
0.86569702
0.86685309
0.87008372
0.87541035
0.88161428
0.88589659
0.88849806
0.88808507
0.88302157
0.87386611
0.86311606
0.85233512
0.84087374
0.83076807
0.8227531
0.81713664
0.8144194
0.81770431
0.82738004
0.84046312
0.85404495
0.86530422
0.87235773
0.87452636
0.87759856
0.88557851
0.89907466
0.91515414
0.92970466
0.93727511
0.93408288
0.92355458
0.91208345
0.90526801
0.90427566
0.90901376
0.9145013
0.91464116
0.90744607
0.89620113
0.88571052
0.87876312
0.8787653
0.88473975
0.89294838
0.89951596
0.90493126
0.90985431
0.91404521
0.91804248
0.92134137
0.92196282
0.91680262
0.90814036
0.89787164
0.88733243
0.87730745
0.86915335
0.86243192
0.8556626
0.85079949
0.84989733
0.85358891
0.8599813
0.86905504
0.8788836
0.88760665
0.89621453
0.90763448
0.9228469
0.93883253
0.9534572
0.96258349
0.96276833
0.95352595
0.94027562
0.92824861
0.91999
0.91669758
0.91685626
0.9168355
0.91217631
0.90501898
0.89770287
0.89198258
0.88839784
0.88714256
0.88577818
0.88083396
0.87342317
0.86622569
0.86168189
0.85992675
0.86217921
0.8660379
0.8675609
0.86506265
0.8600186
0.85452661
0.84944854
0.84801820000000006
0.85092475
0.85676626
0.86321614
0.87058483
0.87810794
0.88411718
0.88901328
0.89369229
0.89855825
0.90258606
0.90881105
0.9176682
0.92752849
0.93594222
0.94178214
0.94320627
0.9384293
0.93022022
0.92212986
0.91662932
0.91352658
0.91405405
0.91625949
0.91679077
0.91427829
0.90994884
0.90508291
0.89953861
0.89588453
0.89465537
0.89475687
0.89436468
0.89419793
0.89363948
0.89087458
0.88578139
0.87866614
0.86952334
0.85745753
0.84600894
0.83719796
0.83179621
0.83001943
0.83282771
0.83939631
0.8475301
0.85794143
0.87114615
0.88657091
0.90190165
0.91716306
0.93032193
0.93876025
0.94209551
0.94209152
0.94023715
0.93649862
0.93353041
0.93189003
0.93043168
0.92720823
0.92291346
0.91707271
0.90900628000000006
0.89925727
0.88758001
0.87348542
0.85714376
0.8417572
0.82910418
0.81944149
0.81205491
0.80562034
0.79890063
0.7929722
0.79271982
0.80139264
0.81751758
0.83424051
0.8434114
0.83879686
0.82188578
0.80311741
0.79436747
0.79963662
0.81075708
0.81364749
0.79682888
0.7639516
0.73715295
0.74612488
0.80568033
0.89963188
0.98161979
