0.95260781
0.95144563
0.987292
1.0308509
1.0543722
1.0480078
1.0203456
0.9895793
0.97160836
0.97238213
0.98567245
0.99869111
1.0019443
0.99445377
0.98222857
0.97247895
0.97063244
0.97676236
0.9864801
0.99326128
0.99517729
0.99358254
0.99176431
0.99159031
0.99472003
1.0001944
1.0054883
1.0079487
1.0079959
1.0068456
1.0051653
1.0030737
1.0012834
0.99974593
0.9968851
0.9935192
0.99075556
0.98884915
0.98603696
0.98357253
0.98147175
0.97910625
0.97384287
0.96763352
0.96066867
0.9528311
0.94311476
0.93376723
0.92532662
0.91759476
0.91056196
0.90639467
0.90570328
0.90770316
0.9123411
0.92032526
0.9311293
0.94292784
0.95618008
0.97148899
0.98855102
1.0051079
1.0217424
1.0379494
1.0528556
1.063924
1.0732499
1.0811483
1.0873581
1.0903652
1.091823
1.091716
1.0895323
1.0852608
1.0814404
1.0789097
1.07662
1.0737984
1.0703558
1.06511
1.0560703
1.0444526
1.0324453
1.0215836
1.0110799
1.0023591
0.99506909
0.9880084
0.97832125
0.96803927
0.95817698
0.94972316
0.94257404
0.93914036
0.93955247
0.94267518
0.947306
0.95449652
0.96417645
0.97526103
0.98765696
1.0020688
1.0177394
1.032241
1.0454092
1.0573341
1.0675541
1.0741142
1.0787098
1.0821266
1.0846486
1.0844308
1.0840294
1.0837847
1.0834311
1.081613
1.0802173
1.0790746
1.0769426
1.0725874
1.0671433
1.0605817
1.0522093
1.0429116
1.0348222
1.0285518
1.0225834
1.0168552
1.0110795
1.0044297
0.99519797
0.98566892
0.97780234
0.97299719
0.97006363
0.97084086
0.97459698
0.97997726
0.98508396
0.99162927
0.99991248
1.0091693
1.0181413
1.0271765
1.0350795
1.0400165
1.04226
1.0439637
1.046214
1.0480336
1.0498066
1.0512086
1.0509725
1.046757
1.0406618
1.0345738
1.0299509
1.0255143
1.0232032
1.0219031
1.0197239
1.0143473
1.0076681
1.0006001
0.99349653
0.9864702
0.9810974
0.97690923
0.97219328
0.96671381
0.96186581
0.9583346
0.9555057
0.95453132
0.95615624
0.96001647
0.96408422
0.96950637
0.97659539
0.9850968
0.99253329
1.0001952
1.0072245
1.0124157
1.0140787
1.0143311
1.0139169
1.0128122
1.0108752
1.0098077
1.0095158
1.0086483
1.0071462
1.0062434
1.0060332
1.0050257
1.0037245
1.0025123
1.0009017
0.99684791
0.99181158
0.98649539
0.98112596
0.97380461
0.96648737
0.95897137
0.95061235
0.94017986
0.92992848
0.92088747
0.91356921
0.90855375
0.9080678
0.91242582
0.92027999
0.93084276
0.94399
0.95838089
0.97138185
0.98272453
0.99254218
1.0005306
1.0050013
1.0076969
1.0095227
1.0109079
1.0102149
1.0098619
1.0100438
1.0102321
1.0087994
1.0073653
1.0059654
1.0040179
1.0011707
0.99923611
0.99825355
0.99661554
0.99341543
0.98877303
0.98193761
0.97136696
0.95844196
0.94523845
0.93318503
0.92173156999999994
0.9128056
0.90682015
0.90334526
0.90009414
0.89894449
0.90029643
0.90427287
0.91000264
0.91908934
0.9310061
0.94400392
0.95624945
0.96798564
0.97848068
0.98644974
0.99218921
0.99723831
1.0020081
1.0053528
1.0080901
1.0110007
1.0141374
1.0160407
1.0184952
1.0221556
1.0267596
1.0295574
1.0315767
1.0318643
1.0294222
1.0230519
1.0154745
1.0080251
1.0009974
0.99408649
0.98837126
0.98296797
0.9758245
0.96637743
0.95586937
0.9449998
0.93328828
0.92207117
0.91244244
0.90443922
0.89645146
0.88993486
0.88571599
0.88427286
0.88413725
0.88734681
0.89367058
0.90207812
0.91051426
0.91998045
0.92990094
0.93900919
0.94628439
0.95302447
0.95934447
0.96448841
0.96902561
0.97460304
0.98140013
0.9876653
0.99345941
0.99880136
1.0031316
1.0046703
1.0054108
1.0065483
1.0084831
1.008968
1.0092578
1.0082141
1.0043277
0.99576439
0.98467157
0.97219888
0.9589879
0.94557142
0.93407987
0.92480876
0.91675967
0.91001132
0.90592404
0.90500281
0.9064085
0.91092693
0.91895722
0.92969123
0.94046782
0.95150129
0.96236506
0.97250757
0.97981566
0.98632479
0.99227185
0.99736246
1.0002786
1.0027917
1.0050394
1.0064323
1.0065487
1.0071622
1.0085164
1.0094789
1.0097701
1.0100222
1.0096367
1.0066741
1.0016533
0.9955049
0.98859149
0.97969453
0.97071973
0.96245656
0.95502639
0.94651911
0.93899174
0.93256166
0.926847
0.92054384
0.9153485
0.91145314
0.90845707
0.90619953
0.90656685
0.91004255
0.91579314
0.92364544
0.93405832
0.94618808
0.95777722
0.9687456
0.97922343
0.98870316
0.99514455
0.99981088
1.0032437
1.0057761
1.0060188
1.0067536
1.0084925
1.0106997
1.011298
1.0110228
1.0089599
1.0039364
0.99571739
0.98697423
0.97923876
0.97263849
0.96767156
0.96505315
0.96369359
0.96089979
0.95634947
0.95040796
0.94326762
0.93391076
0.92445374
0.91605422
0.90923938
0.90256993
0.89840353
0.89725208
0.89906623
0.90268125
0.90952434
0.91904863
0.92961458
0.93953184
0.94921805
0.95802637
0.96463295
0.96924045
0.97337764
0.97748367
0.98041222
0.98291517
0.98558864
0.98814476
0.98869407
0.98873673
0.98894014
0.98944273
0.98821975
0.98719421
0.98615407
0.98442694
0.98058026
0.97657776
0.97278058
0.96863278
0.96341933
0.95837876
0.95340065
0.94755912
0.94134677
0.93652772
0.93360709
0.93125404
0.92957911
0.92851729
0.92745365
0.92483111
0.92269293
0.92260573
0.9254634
0.92960475
0.93626518
0.94424518
0.95188172
0.95719945
0.96200269
0.96694447
0.97184437
0.97614301
0.98084093
0.98531812
0.98811812
0.98951654
0.99141073
0.99456752
0.99772463
1.0009002
1.0035586
1.0043421
1.0008808
0.99502501
0.98852678
0.9828097
0.97676941
0.97242608
0.96903756
0.96511073
0.95858802
0.95121118
0.943667
0.93600962
0.92805669
0.92120656
0.91525594
0.90913019
0.90332734
0.89990691
0.90000821
0.90304275
0.90956555
0.91929746
0.93067538
0.94061446
0.94952445
0.95760512
0.96512428
0.97065395
0.97654566
0.98288717
0.98898407
0.99312795
0.99678277
0.99986059
1.0015677
1.0012574
1.0004527
0.99932545
0.99704256
0.99401428
0.99174183
0.99036772
0.98825526
0.98557488
0.98245048
0.97834616
0.97144161
0.96348142
0.95559317
0.94840689
0.94033451
0.93331276
0.92703984
0.92065352
0.91262072
0.90483676
0.89808253
0.89265914
0.88889654
0.8887838
0.89247885
0.89854357
0.90620549
0.91558707
0.9258137
0.93483405
0.9429763
0.95088102
0.95849347
0.96405012
0.96891697
0.97351804
0.9778466
0.98000696
0.982351
0.98516691
0.98801954
0.98923407
0.99015585
0.99043486
0.98915703
0.98586342
0.98257305
0.97987847
0.97694588
0.97360095
0.9704611
0.96700812
0.96164201
0.95530989
0.94937376
0.94435021
0.93877537
0.93374387
0.92938794
0.9257708
0.92186735
0.92096923
0.92453985
0.93276227
0.94363533
0.95676818
0.96974447
0.97991806
0.98600206
0.99004105
0.99345052
0.99633864
0.99903684
1.0020944
1.0046888
1.0050729
1.0045206
1.0050026
1.0074737
1.0101592
1.0132261
1.0152286
1.0146114
1.0091396
1.0022868
0.99635292
0.99268598
0.99016433
0.98903358
0.986855
0.9807489
0.96944605
0.95562993
0.94175483
0.92909462
0.91877812
0.91145736
0.90576339
0.8991616
0.89219102
0.886736
0.88460554
0.88575448
0.89188789
0.90249068
0.9157654
0.92811402
0.94034207
0.9520429
0.96271909
0.97101794
0.97839425
0.98463932
0.98913844
0.99199058
0.99569491
1.0010496
1.0068359
1.0118586
1.0153026
1.0154365
1.010256
1.0014679
0.99198985
0.9840914
0.97746569
0.97345326
0.97112116
0.96853518
0.96231604
0.95427522
0.94535304
0.93646568
0.92727014
0.91959699
0.91281297
0.9051865
0.895405
0.88503376
0.87520235
0.86648865
0.86034703
0.85863865
0.8613867
0.86662519
0.87400465
0.88322302
0.89342829
0.90244217
0.9112796
0.92014177
0.92881421
0.93525211
0.94141937
0.94734039
0.95254069
0.95566176
0.95848647
0.96118104
0.9631988
0.96415277
0.96570454
0.96787115
0.96931576
0.9696631
0.96966724
0.96918551
0.96699858
0.96422229
0.962049
0.96058672
0.95785115
0.95448239
0.95012407
0.94423149
0.93501079
0.92515107
0.91594054
0.90821489
0.90155147
0.89773862
0.89653016
0.89672391
0.89726364
0.89920951
0.90259566
0.9064878
0.91081939
0.91630221
0.92249461
0.92767466
0.93237069
0.93746707
0.94323324
0.9482095
0.95373484
0.95988621
0.96596724
0.96923281
0.97120057
0.97182099
0.97096206
0.96784761
0.96493204
0.96283859
0.96105054
0.9587404
0.95690963
0.95503093
0.95153446
0.94612199
0.93979844
0.93261033
0.92329232
0.91267052
0.90174954
0.89094944
0.8793869
0.86937098
0.86246136
0.85961101
0.85955717
0.86416635
0.87288606
0.88425144
0.89579778
0.90809619
0.9205779
0.93238479
0.9430686
0.95421814
0.96582423
0.97635965
0.98500676
0.99196288
0.99664656
0.9976523
0.9963035
0.99438477
0.99281256
0.99033807
0.98828296
0.98663677
0.98484377
0.98065693
0.97637359
0.972605
0.96934965
0.96520065
0.9614225
0.95735713
0.95168934
0.94363101
0.93509069
0.9269513
0.91895426
0.91145809
0.90546595
0.90067054
0.89553803
0.89086653
0.88808891
0.8881971
0.89049424
0.89657875
0.90641756
0.91879731
0.93029632
0.94142223
0.95137772
0.95964535
0.96548366
0.97153003
0.97859101
0.98610046
0.99292305
0.9996608
1.0054852
1.0088642
1.0100393
1.0109019
1.0122715
1.0131039
1.0138925
1.0147364
1.0147942
1.0118194
1.0073491
1.0025146
0.99805801
0.99236785
0.98734183
0.98240969
0.9763382
0.96722477
0.9568777
0.94612846
0.93539769
0.92509262
0.91727643
0.91217294
0.9085736
0.90620249
0.90608297
0.90857773
0.91297055
0.92046844
0.93189016
0.94654474
0.96137676
0.97591244
0.98886514
0.99913775
1.0047328
1.0085834
1.0121394
1.0161779
1.0198665
1.0246532
1.0296553
1.0330877
1.0337048
1.0330588
1.0318051
1.0296222
1.0270546
1.0252082
1.0235258
1.0198121
1.0141706
1.0072021
0.99919556
0.98914295
0.97920777
0.97042377
0.96299164
0.95492819
0.94799174
0.94212248
0.93699471
0.93161661
0.92796114
0.92626095
0.92567201
0.92512892
0.92544121
0.92637895
0.92717342
0.92858527
0.93246403
0.93912118
0.94661931
0.95431727
0.96127754
0.9661689
0.9670264
0.96624804
0.96596434
0.96765174
0.96986133
0.97404696
0.97866606
0.98150396
0.98010373
0.97636147
0.97142545
0.96601179
0.96059445
0.95694559
0.95452862
0.95127345
0.94639727
0.94076941
0.93477469
0.92779601
0.92121997
0.91606857
0.9120519
0.90697667
0.90170719
0.89669836
0.89262091
0.88891153
0.88891017
0.89366915
0.90284671
0.91416812
0.92736804
0.94033893
0.95065586
0.95696535
0.96099737
0.96389333
0.96588575
0.96789877
0.97121597
0.97542783
0.97850815
0.98062887
0.98231464
0.98351955
0.98257379
0.98074185
0.97823156
0.97485255
0.96884254
0.96275829
0.95739869
0.95290689
0.94809561
0.94426726
0.94083323
0.93655273000000006
0.93065144
0.92468714
0.91900244
0.91275312
0.9058073
0.89884787
0.89179897
0.88400565
0.87740072
0.87425559
0.87576588
0.88068035
0.88929304
0.9000772
0.91082352
0.91808432
0.9232482
0.92682916
0.92938001
0.93047173
0.93227014
0.93473766
0.93673209
0.9372455
0.93767884
0.93825746
0.93808913
0.9372121
0.93656598
0.93581501
0.93324144
0.92949852
0.92558385
0.92174401
0.91635542
0.91058706
0.90440588
0.89718096
0.88652793
0.87453555
0.86197914
0.84962571
0.83749055
0.82834239
0.82281563
0.82017116
0.81930609
0.82104747
0.82534431
0.83175699
0.8412606
0.85568869
0.87506771
0.89689804
0.91948891
0.94072524
0.95825659
0.96952138
0.97658457
0.98186459
0.98757992000000006
0.99330182
1.0011078
1.0098681
1.0173152
1.0205377
1.0206394
1.0182562
1.0140076
1.0086833
1.0047118
1.0023618
1.0000783
0.99697011
0.99328927
0.98847372
0.98092192
0.97132523
0.96071571
0.94948788
0.93650947
0.92356851
0.91166684
0.90129103
0.89098806
0.88286555
0.87725856
0.87400983
0.87203727
0.87303835
0.87714702
0.88356681
0.89127593
0.90090105
0.9115061
0.92097022
0.92837745
0.93425304
0.93868413
0.9410757
0.94344662
0.9479135
0.95528955
0.963806
0.97391888
0.984465
0.99370622
0.99843731
1.000403
1.0000725
0.99779996
0.99300027
0.98797192
0.98304706
0.97767774
0.97150002
0.96633243
0.96244543
0.95865483
0.95443153
0.95013566
0.94526251
0.93855311
0.93140664
0.92567742
0.92222208
0.91959793
0.91835111
0.91776009
0.9169267
0.91406574
0.91206064
0.91255991
0.91645639
0.9227678
0.93212557
0.94275021
0.95207514
0.95837609
0.96299873
0.96672099
0.96938203
0.97145576
0.97383254
0.97592678
0.97587194
0.9744394
0.97296637
0.9721175
0.97054648
0.96946634
0.96869902
0.96759723
0.96407936
0.96069827
0.95833264
0.95705755
0.95525918
0.95355098
0.950551
0.94448584
0.93463258
0.92336567
0.91232469
0.90201326
0.89331848
0.88736548
0.88375102
0.88082968
0.87937855
0.88066884
0.88525489
0.89167072
0.90053249
0.91089547
0.9211733
0.92838624
0.93421138
0.93922128
0.94387177
0.94756807
0.95217957
0.95733604
0.96156067
0.96356534
0.96454042
0.96469303
0.96335693
0.96096553
0.95889949
0.95724814
0.95460131
0.95169296
0.94939901
0.94774323
0.94490278
0.94200427
0.93920478
0.93626283
0.93119133
0.92620878
0.92164528
0.91717728
0.91131064
0.90540296
0.89938273
0.89285903
0.88601124
0.8813003
0.87978377
0.88094471
0.8844798
0.89043549
0.89764843
0.90397865
0.90991545
0.91659717
0.92460648
0.93264181
0.94178475
0.95165549
0.96120182
0.96775475
0.97313851
0.97778513
0.98185854
0.98448367
0.98747822
0.99071725
0.99356579
0.99579275
0.99749574
0.99780466
0.99596871
0.99299001
0.99010336
0.98735436
0.9833697
0.97727378
0.96763837
0.95407864
0.93823297
0.92507838
0.91781493
0.91612316
0.91525714
0.91034931
0.8973756
0.87822263
0.86144486
0.85888884
0.87614101
0.90778743
0.93868104
0.95143554
0.93637651
0.90055988
0.86814582
0.86725257
0.91163437
0.98755389
1.0552849
