0.82945922
0.85848107
0.89712379
0.91182632
0.89643062
0.86856588
0.84987226
0.85035394
0.86193375
0.86753173
0.85881716
0.83928419
0.81828104
0.80404167
0.79832963
0.79657031
0.79391527
0.79024503
0.78740068
0.78587935
0.78596926
0.7865987
0.7862376
0.78720657
0.79211259999999994
0.80081992
0.81153772
0.82188751
0.82927862
0.834354
0.84022918
0.84824314
0.85782207
0.86899581
0.87910022
0.88421778
0.88627929
0.88661043
0.88519117
0.88375853
0.88217069
0.87798874
0.87055142
0.86157458
0.85205552
0.84255169
0.83533952
0.82970713
0.82210969
0.81321542
0.80277019
0.79020402
0.77834861
0.76952401
0.76344931
0.75964239
0.75788165
0.75631268
0.75338632
0.7511007
0.75037112
0.74994326
0.75181325
0.75534181
0.75826241
0.76138119
0.76546784
0.76980192
0.77461249
0.78076337
0.78739115
0.79362771
0.80141693
0.8107737
0.819068
0.82690853
0.83251942
0.83320604
0.83023188
0.82556816
0.82013308
0.81563097
0.8137933
0.81382063
0.8140583
0.81514744
0.81622936
0.81473511
0.81181601
0.8070174
0.7990001
0.7894972
0.78026366
0.77154587
0.76418041
0.75938298
0.75629605
0.75339637
0.7515892
0.75047788
0.74815874
0.74668367
0.746432
0.74634848
0.74765989
0.75065714
0.7534831
0.75493311
0.75472554
0.75147441
0.74440725
0.73630301
0.72896833
0.7222082
0.71873091
0.7177874
0.71595221
0.71228454
0.70660959
0.69926546
0.69351574
0.69395577
0.70195882
0.71556005
0.73248829
0.74748684
0.75416584
0.75279044
0.74496514
0.73303631
0.72235716
0.71658691
0.7154815
0.71776962
0.72242079
0.72716135
0.73026737
0.7335423
0.73750041
0.74025349
0.74317522
0.74560392
0.74580137
0.74518992
0.74515325
0.74521254
0.74511528
0.7451141
0.74420067
0.74198027
0.74168808
0.74559287
0.7533322
0.76635452
0.78234965
0.7963955
0.80631528
0.81138841
0.81163718
0.80973372
0.80964149
0.81252512
0.81713581
0.82320065
0.82855864
0.82991944
0.82905935
0.82674008
0.82196558
0.81553654
0.80759137
0.79713112
0.78525646
0.77513078
0.76804835
0.76340241
0.76165585
0.76109966
0.75869804
0.75669097
0.7562868
0.75673863
0.75849822
0.76070275
0.76123426
0.76036375
0.76074094
0.76359071
0.76847338
0.77577084
0.78352968
0.78852152
0.79268649
0.79676897
0.79975739
0.8024673
0.80518027
0.80773314
0.81247948
0.82272829
0.83796557
0.85392366
0.86663154
0.87140502
0.86552092
0.854782
0.84505844
0.83874393
0.83646405
0.83480261
0.82822463
0.815122
0.79906635
0.78414936
0.77296336
0.76787227
0.76699364
0.76561543
0.76425691
0.76304786
0.76094131
0.75865776
0.75558903
0.74952706
0.7405729
0.7315296
0.72432983
0.71988023
0.7203091
0.72504181
0.73129268
0.74070492
0.75321313
0.76674072
0.78114277
0.79537124
0.80705405
0.8161164
0.82470179
0.83347239
0.84199627
0.85172167
0.861784
0.8692075
0.87577202
0.88148605
0.88438876
0.88472775
0.88216076
0.87494527
0.86333498
0.85002528
0.8366485
0.82402152
0.81484933
0.80921103
0.80437673
0.80171077
0.80105408
0.80090241
0.8024508
0.80641652
0.81137369
0.8165549
0.82262488
0.82913016
0.83555665
0.84410426
0.85486429
0.86493399
0.87477578
0.88283777
0.88674948
0.88830132
0.8901308
0.89350893
0.90001855
0.91059605
0.9224053
0.93095038
0.93494682
0.93308189
0.92420994
0.9135492
0.90472104
0.89867753
0.8975634
0.90162924
0.90845533999999994
0.9164415
0.9251529
0.93195885999999994
0.93314644
0.928139
0.91615972
0.89666696
0.87585111
0.85884294
0.84781132
0.84483678
0.84852088
0.85390431
0.85747912
0.85894328
0.85863607
0.85792929
0.86084997
0.86822004
0.87692288
0.88695939
0.89611793
0.90148195
0.90453846
0.90738927
0.91059485
0.91535484
0.92286136
0.93130515
0.93788898
0.94310818
0.94651819
0.94626436
0.94541743
0.94456134
0.94183772
0.93807547
0.93382493
0.92835222
0.92264668
0.91875728
0.91581105
0.91112514
0.90443055000000006
0.89449611
0.87973685
0.86485834
0.85326744
0.84575596
0.84386244
0.84661255
0.85034492
0.85322819
0.85625063
0.86008168
0.86531084
0.87432495
0.88623261
0.89700126
0.906736
0.9142508
0.91806451
0.92066602
0.92426573
0.92879811
0.93446522
0.94144715
0.9474683
0.9500055
0.95012832
0.94810518
0.94280709
0.93757128
0.93280015
0.92627839
0.91844933
0.9098814
0.90055507
0.89257376
0.88889433
0.8888948
0.88911936
0.88754328
0.88089398
0.86603209
0.84723431
0.82871973
0.81288826
0.80308114
0.79960454
0.79905661
0.79895775
0.799239
0.79959885
0.80021135
0.80388127
0.81049608
0.81671288
0.82331738
0.82959016
0.8343301
0.8402044
0.8490481
0.85944767
0.86964179
0.87830547
0.88299444
0.88277558
0.88167866
0.88259227
0.88515264
0.89143723
0.89954753
0.90538799
0.90900859
0.91176583
0.91414461
0.91742154
0.9227395
0.92796605
0.92979559
0.92825923
0.92270966
0.91133219
0.89746498
0.88310565
0.8689163
0.85820738
0.85312219
0.85262578
0.85540935
0.86095408
0.86778318
0.87508678
0.88505029
0.89701761
0.90639155
0.91183731
0.91145632
0.90529716
0.89969748
0.90118459
0.91142078
0.92794302
0.94520043
0.95551018
0.95451833
0.94611471
0.93597412
0.92740145
0.9248154
0.92667567
0.92799734
0.9276368
0.9260322
0.92321685
0.92016499
0.9175322
0.91306927
0.90432684
0.89292973
0.88011455
0.86558778
0.8527183
0.84205129
0.83215108
0.82439512
0.81977015
0.8173704
0.81705271
0.81941256
0.82349625
0.82849436
0.83636546
0.8466701
0.85587673
0.86388758
0.86879757
0.86854914
0.86572265
0.86305764
0.86090335
0.85934149
0.85817125
0.85532397
0.84961039
0.84412241
0.84075664
0.83842936
0.83846544
0.8383167
0.83355467
0.82418598
0.81209153
0.79930426
0.78939005
0.78558728
0.78691591
0.78978255
0.79247619
0.79252973
0.78753289
0.78121545
0.77629449
0.77334974
0.77398963
0.77767205
0.78138812
0.78366883
0.78523755
0.78620609
0.78670469
0.78901428
0.7930415
0.79637235
0.80053818
0.80519096
0.80864855
0.81198606
0.81589187
0.81975322
0.82424831
0.83058163
0.83739628
0.84204875
0.84401437
0.84214298
0.8354235
0.82808827
0.82264055
0.81884843
0.81698998
0.81571536
0.81261955
0.80795296
0.80418487
0.80201092
0.80013155
0.79800763
0.79315797
0.78263689
0.76979011
0.75774693
0.74789553
0.74229508
0.74033018
0.73860587
0.73521896
0.73069564
0.72515807
0.71861987
0.7131082
0.70840091
0.7021722
0.69622291
0.69068375
0.68424618
0.67807584
0.67282114
0.66797105
0.66484673
0.6661252
0.67259512
0.68369082
0.69983421
0.7186608
0.73555548
0.75033915
0.76204231
0.76934825
0.77433506
0.77867631
0.78176205
0.7833655
0.78419503
0.783582
0.78091037
0.77881623
0.77813034
0.77672219
0.77551391
0.77327734
0.76778071
0.7605264
0.75360853
0.74733906
0.74190688
0.73759727
0.7328982
0.72650266
0.72061349
0.71646477
0.71301205
0.71208673
0.71366853
0.71689327
0.72390861
0.73636416
0.75293586
0.77150632
0.79054264
0.80844782
0.82554221
0.84576404
0.86977386
0.89242879
0.9093765
0.91475799
0.90570187
0.88823916
0.87195332
0.86357036
0.86517183
0.87342851
0.87990804
0.87712658
0.86523565
0.8477006
0.82790893
0.81193407
0.80090504
0.79189249
0.78395603
0.77692287
0.77041279
0.76558762
0.76432346
0.76607636
0.76910201
0.7739628
0.77990075
0.78440352
0.78902963
0.793596
0.79642462
0.79875372
0.80176963
0.80523414
0.8100788
0.81791145
0.82775718
0.8373829
0.84688766
0.85494219
0.85921925
0.86270492
0.86669009
0.87016401
0.87361432000000006
0.87586665
0.87378023
0.86629457
0.85508811
0.84151362
0.82702038
0.81542403
0.80800439
0.80300899
0.80205703
0.80454941
0.80818504
0.81331212
0.82001869
0.82676733
0.83300493
0.83918827
0.8439852
0.8455921
0.8451347
0.84273008
0.83719651
0.83173292
0.82751441
0.82371492
0.82153815
0.82136059
0.82201726
0.82379122
0.82804145
0.83412904
0.84038833
0.8469835
0.85219754
0.85298724
0.85148035
0.84889367
0.84554392
0.84419683
0.84610672
0.84958727
0.85306994
0.85579127
0.85584993
0.85191814
0.84629699
0.84032994
0.83337328
0.82808761
0.82406266
0.81841713
0.81073885
0.80080363
0.78805938
0.77434209
0.76294173
0.75489214
0.74956274
0.74753188
0.7472332
0.74561747
0.74437903
0.74386006
0.7429197
0.7427108
0.74368576
0.74493542
0.74731091
0.75297812
0.76177541
0.77177188
0.78252645
0.79158491
0.79529944
0.79589512
0.79484286
0.79224904
0.79025583
0.78949826
0.78833716
0.78628816
0.7841639
0.78114908
0.77582924
0.76937285
0.76181991
0.75217413
0.74428238
0.739972
0.73833653
0.73956933
0.74265027
0.74519037
0.7470685
0.75073954
0.75752559
0.76746567
0.78174339
0.79868945
0.81421301
0.82857483
0.84108206
0.85006388
0.85635309
0.85987438
0.85842575
0.8509838
0.83864607
0.82264913
0.80541687
0.79235353
0.78613022
0.78521647
0.78971552
0.79687949
0.80318611
0.80937989
0.81704524
0.82603734
0.83598809
0.84642669
0.85524331
0.86085258
0.86515663
0.86830432
0.86713438
0.86151727
0.85049609
0.83446301
0.8193508
0.81121697
0.81133038
0.81693053
0.82272148
0.82207129
0.81208671
0.79782247
0.78513274
0.77612889
0.77308503
0.77289763
0.77078373
0.76725702
0.76520353
0.76645117
0.77174274
0.77982988
0.78641322
0.78806156
0.78687121
0.78589555
0.78665291
0.79280071
0.80337812
0.81410408
0.82337397
0.83035738
0.83407511
0.83562239
0.83716179
0.83867156
0.83942466
0.84158839
0.84612329
0.85206863
0.86156663
0.87279793
0.88017626
0.8799373
0.86939358
0.84790875
0.82017705
0.79452735
0.77685355
0.76878287
0.76981471
0.77485021
0.77690758
0.77563149
0.77212761
0.7678298
0.76642185
0.76926652
0.77409887
0.77890329
0.78340035
0.78705208
0.78993683
0.7948193
0.80192293
0.80818536
0.81384398
0.81733324
0.81666162
0.81404122
0.81216195
0.81185586
0.81390201
0.81861768
0.82355904
0.82581051
0.82591921
0.82378939
0.81816237
0.81236805
0.80773252
0.80388116
0.80274035
0.80519206
0.80945793
0.81380383
0.81726668
0.81795696
0.81496776
0.81141825
0.80937632
0.80824444
0.80991563
0.81314298
0.81477907
0.8148793
0.81411915
0.81228461
0.81031192
0.809774
0.81015126
0.81027898
0.8114343
0.81317143
0.8130117
0.81250859
0.81173095
0.80991754
0.80933907
0.81136818
0.81454592
0.81727864
0.81867573
0.81726302
0.81305421
0.81000966
0.8103219
0.81248428
0.81667661
0.81993623
0.81847819
0.81323703
0.80676433
0.80075656
0.79699971
0.79628633
0.79622698
0.79384418
0.78965554
0.78417683
0.77724737
0.77246857
0.77059949
0.76983717
0.77014241
0.77092894
0.77067528
0.7696921
0.76955355
0.77016121
0.77065772
0.77202623
0.77352235
0.77296735
0.77242503
0.77242758
0.77207901
0.77246542
0.77341
0.77280079
0.76981323
0.76520239
0.75900523
0.75147664
0.74522206
0.74055742
0.73503358
0.72959201
0.72336363
0.71464848
0.70524084
0.69702563
0.69008676
0.68484053
0.68199735
0.6802658
0.67808218
0.67702707
0.67745461
0.67752255
0.67891804
0.68092141
0.68104265
0.67971905
0.67757901
0.67402748
0.66972006
0.66658605
0.66509381
0.66537887
0.66997387
0.67927462
0.69084944
0.70531745
0.7210608
0.73520846
0.74805554
0.76008972
0.77039239
0.77884951
0.78620381
0.79168954
0.79450526
0.79713292
0.80101703
0.8054225
0.81275416
0.82259571
0.83201549
0.84032338
0.84718143
0.85153533
0.85386734
0.85586435
0.85683031
0.85443552
0.84868181
0.83891212
0.82404515
0.80864121
0.79614648
0.78740876
0.78363978
0.78388617
0.78472881
0.78423231
0.78322182
0.78240012
0.78244703
0.78613426
0.79380797
0.80298
0.81471131
0.82794323
0.83986048
0.85034714
0.85943066
0.86638875
0.872369
0.87960683
0.88745634
0.89323463
0.8964754
0.89627378
0.8919969
0.88916658
0.89080519
0.89547213
0.90139185
0.90516732
0.90341934
0.89736276
0.89175807
0.88872188
0.88635023
0.88244272
0.87322816
0.85644034
0.83871656000000006
0.82679971
0.82328868
0.82813502
0.83649591
0.84129825
0.84007984
0.83637172
0.83452371
0.83707145
0.84540371
0.85602912
0.86305609
0.86695089
0.86899047
0.87024893
0.87373708
0.87988252
0.88590671
0.89025295
0.89357736
0.89610004
0.89810445
0.90183538
0.90658316
0.90875868
0.90919294
0.9076042
0.90344474
0.89993957
0.89962886
0.90197506
0.90576136
0.90943832
0.90940768
0.90267396
0.8908471
0.87562201
0.85741739
0.84057066
0.82636043
0.8133459
0.80233508
0.79376892
0.78661799
0.78110658
0.77836499
0.77729062
0.77601443
0.77555842
0.77589906
0.77583389
0.77866133
0.78508549
0.79311248
0.80243335
0.81179246
0.81888143
0.82387721
0.82892708
0.83445333
0.83962457
0.84507571
0.8491401
0.84876232
0.84649925
0.84414376
0.84234221
0.8439437
0.84973053
0.85716971
0.86411536
0.86980022
0.87272493
0.8720245
0.87005161
0.86711028
0.86057426
0.85142372
0.83919945
0.82323283
0.80688675
0.79357093
0.78402097
0.77813913
0.77548279
0.77383831
0.77159585
0.77090173
0.77256754
0.77453397
0.77739682
0.77942581
0.77852789
0.7772958
0.77922715
0.78575628
0.79724434
0.81232217
0.82641929
0.83522355
0.83937283
0.84049114
0.83962437
0.84138089
0.84630438
0.85113612
0.85426257
0.85410848
0.84926351
0.84155043
0.83486848
0.83075558
0.82842322
0.82773631
0.82594453
0.81893843
0.80860737
0.79686135
0.78488159
0.77589401
0.77127399
0.76925195
0.76832029
0.76821223
0.76763663
0.76550309
0.76393939
0.76386454
0.76433274
0.7679526
0.77455567
0.78135327
0.78752258
0.79201904
0.79332876
0.79250726
0.79241771
0.7939004
0.79625523
0.80028808
0.80491724
0.80785696
0.81198523
0.81854274
0.82726192
0.83740504
0.84546275
0.84784401
0.84509744
0.84042111
0.83661716
0.835026
0.83518468
0.83489187
0.83359503
0.83440524
0.83730968
0.83744436
0.82873783
0.80773882
0.7801452
0.76137084
0.76451338
0.78708456
0.80977688
0.80955645
0.77867133
0.73724525
0.72446413
0.76472873
0.8409442
