0.67185876
0.74399221
0.80570608
0.84056624
0.86155673
0.88751842
0.92268976
0.953338
0.96451603
0.95668399
0.94120184
0.9276534
0.91737608
0.90433872
0.88522653
0.86528047
0.85070692
0.84276554
0.83725968
0.82618044
0.80620574
0.78118284
0.75533741
0.73200285
0.71203691
0.69196446
0.67198586
0.65335378
0.63617191
0.62381421
0.61676656
0.61200421
0.61058102
0.6124498
0.61712452
0.62755843
0.64237036
0.65735877
0.67089569
0.68046157
0.68724869
0.69880231
0.72110034
0.7576071
0.80767512
0.86216273
0.91058814
0.94691105
0.96925188
0.98264234
0.99346092
1.0008221
0.99936192
0.98192915
0.94303574
0.88822118
0.83074429
0.78184371
0.7494201
0.73246151
0.72115363
0.70893364
0.69317588
0.67372695
0.65658364
0.64519054
0.6373017
0.63219608
0.62689301
0.6186996
0.61074615
0.60492194
0.60111426
0.60032852
0.60046203
0.60036134
0.60413613
0.61582308
0.64030418
0.68231286
0.74015343
0.80903122
0.88184033
0.94680924
0.99471868
1.0215936
1.0275241
1.020249
1.0092732
0.99711591
0.98230598
0.96029077
0.92587152
0.88225831
0.83733123
0.79707035
0.76681928
0.74586171
0.72773051
0.71003116
0.69215083
0.67405945
0.66024572
0.65099754
0.64204602
0.6320266
0.62044825
0.60963855
0.60584741
0.60974761
0.61679609
0.624854
0.63618285
0.66150243
0.71371306
0.79073134
0.87348562
0.93456044
0.95219228
0.92879766
0.88834591
0.85654049
0.8476219
0.85675568
0.86652479
0.86617953
0.85630764
0.84261937
0.83195547
0.82407759
0.81241543
0.79524008
0.77477465
0.75394786
0.73791856
0.72691009
0.71642901
0.7061913
0.69607485
0.68604136
0.67924554
0.67503651
0.66981373
0.66266889
0.65254919
0.64084034
0.63298475
0.63069693
0.63278048
0.63769373
0.64213337
0.64701116
0.65680792
0.67175114
0.68884009
0.70281465
0.70804666
0.70674722
0.70632752
0.71159062
0.72438821
0.74064927
0.75237393
0.75751127
0.75773698
0.75394377
0.74882326
0.7423175
0.73233101
0.72238118
0.71526208
0.70929917
0.70413585
0.69630109
0.68277612
0.66795116
0.65544107
0.64562137
0.63891658
0.63240303
0.62409743
0.61701003
0.61203585
0.60784771
0.60382931
0.59917601
0.59813646
0.60915172
0.63552012
0.67403485
0.71546872
0.74719901
0.76386876
0.7688507
0.76875967
0.77252957
0.78528376
0.80544914
0.8308663
0.85670511
0.87465874
0.88033527
0.87224356
0.85255505
0.83183146
0.81863429
0.81295858
0.81162433
0.80600761
0.78882951
0.76342953
0.73654252
0.71408579
0.70094063
0.69497624
0.69097947
0.68695004
0.68110474
0.67346051
0.66679328
0.66186223
0.65985686
0.66292728
0.67006218
0.68018601
0.69214594
0.70282787
0.71258422
0.72441947
0.74041911
0.76400733
0.7946916
0.82504195
0.84827921
0.85862195
0.85291949
0.83752082
0.82017251
0.80364403
0.79012508
0.77688868
0.75937185
0.74069504
0.72398195
0.70970041
0.69911136
0.68902975
0.67564119
0.66098428
0.64676848
0.63384842
0.62443743
0.61760466
0.6127269
0.61213509
0.61569572
0.62285655
0.63466214
0.6515675
0.67720038
0.71591374
0.76570263
0.82002072
0.86810045
0.89737087
0.90383601
0.89184128
0.8695997
0.84902821
0.8369109
0.83120467
0.82899064
0.82656808
0.82136872
0.81795931
0.81904069
0.82102123
0.82106935
0.81459793
0.79992536
0.78415725
0.77289112
0.7657005
0.75918244
0.74597684
0.72249995
0.69499106
0.67179175
0.65927259
0.65994165
0.66894371
0.68053236
0.69196438
0.70004299
0.70403362
0.7053551
0.70549946
0.7106811
0.72747234
0.75576803
0.79130045
0.82518183
0.84710459
0.85517002
0.85307638
0.84531181
0.83818167
0.83286992
0.82526909
0.81475074
0.80084118
0.78300942
0.76601858
0.75146639
0.73756867
0.72557203
0.71463744
0.70369041
0.69575664
0.69090484
0.68689385
0.68333081
0.67823334
0.67157922
0.6673122
0.66672778
0.66922769
0.6731537
0.67375014
0.66923736
0.66208396
0.65478547
0.6516102
0.65518032
0.66362592
0.67642583
0.69307672
0.71165916
0.73358701
0.75929342
0.78619716
0.81372388
0.83904565
0.85697283
0.86671678
0.86790447
0.86037033
0.84921663
0.83689266
0.82247095
0.80734784
0.7906769
0.77153978
0.75365028
0.73803439
0.72308822
0.70863396
0.69213602
0.67272817
0.65444698
0.63989145
0.63076002
0.62807505
0.62845238
0.62902774
0.62927156
0.62784315
0.62574443
0.62455887
0.62341164
0.62382864
0.62801055
0.63668309
0.6532988
0.67921004
0.71145932
0.74854724
0.78688774
0.82145806
0.85242314
0.87921561
0.89925146
0.91356667
0.92054005
0.91760127
0.90760467
0.89247742
0.87325613
0.85397192
0.83520638
0.81581242
0.79697566
0.77782641
0.75780137
0.73899118
0.72083446
0.70245356
0.68489931
0.66771264
0.65247084
0.64237762
0.6365202
0.63332032
0.6317448
0.63010591
0.63101471
0.63736239
0.64720325
0.6594732
0.67446221
0.6951174
0.73048847
0.78296208
0.84050385
0.8853308
0.89960324
0.87835835
0.83978402
0.80812656
0.79881933
0.81411552
0.84025627
0.86130667
0.87360629
0.88081282
0.88870142
0.90125769
0.91428511
0.92159031
0.92144378
0.91250486
0.89452291
0.86868752
0.83504488
0.79764421
0.76449923
0.74092106
0.72953671
0.72851103
0.73090423
0.73221164
0.73046184
0.72393444
0.71501224
0.70616261
0.69819227
0.69517305
0.69832818
0.7045412
0.71285207
0.72116229
0.72774512
0.73717372
0.75133066
0.76784055
0.78482229
0.7966986
0.79904213
0.79488427
0.78674207
0.7761187
0.76596815
0.75525922
0.74348184
0.73340065
0.72480659
0.71641702
0.70728859
0.69434942
0.67778043
0.66133081
0.64694893
0.63680377
0.63157017
0.62827905
0.62638663000000006
0.62650681
0.627401
0.63013438
0.63504926
0.64101561
0.65220703
0.6740058
0.70943082
0.76093297
0.82184035
0.87621599
0.91041946
0.91446697
0.88874583
0.84860488
0.81137194
0.7886028
0.78453336
0.79156797
0.79829142
0.7994424
0.79365733
0.78416506
0.77731559
0.77492655
0.77616854
0.7797366
0.78110638
0.77722004
0.76828808
0.75492555
0.74104244
0.73096142
0.72424549
0.71944496
0.71430163
0.70606356
0.69710068
0.69040495
0.68538873
0.6826594
0.68147984
0.68138285
0.6882367
0.70512567
0.72863124
0.75427201
0.77378798
0.78155162
0.78195259
0.78122871
0.78369935
0.79180052
0.80086131
0.8047269
0.80269815
0.79484816
0.78276199
0.7701923
0.75735023
0.7445232
0.73371763
0.72400946
0.71475816
0.70607854
0.69596396
0.68487496
0.6744807
0.66364601
0.652632
0.64176751
0.62981666
0.61932619
0.61308907
0.6109615
0.61430725
0.62201017
0.6306087
0.64232103
0.66086724
0.68949554
0.73305107
0.78690241
0.83705795
0.87053651
0.87802731
0.8613415
0.83553787
0.81443163
0.80365609
0.80176507
0.80100222
0.79739571
0.79534542
0.79803488
0.80415577
0.80860632
0.80386914
0.78972845
0.77401411
0.7627874
0.75759384
0.75424552
0.74549667
0.73121422
0.7171542
0.70741305
0.70374921
0.70283134
0.69901744
0.69344294
0.68965218
0.68830384
0.69013003
0.69240743
0.69290589
0.69809737
0.71341784
0.73917915
0.77251041
0.80394066
0.82469477
0.83442291
0.83546178
0.83129386
0.82600916
0.81903783
0.8094118
0.79897407
0.78715286
0.7731675
0.75764274
0.73964465
0.72141414
0.70761456
0.69890497
0.69444051
0.6918626
0.68653068
0.67826289
0.66915949
0.65880242
0.64810977
0.63687361
0.62328988
0.61076641
0.60280025
0.59915919
0.60045577000000006
0.60386839
0.60524943
0.60831536
0.61821596
0.6395852
0.67725983
0.72688224
0.77720359
0.81879348
0.84410761
0.8527825
0.85310743
0.85194462
0.85250905
0.85524766
0.85627369
0.85425067
0.85297604
0.8551309
0.86184915
0.87097811
0.87517995
0.86971141
0.85472249
0.83222984
0.80792788
0.78644591
0.76725994
0.75008536
0.73416586
0.71788103
0.70409602
0.69553681
0.69176717
0.69338768
0.69755669
0.69874783
0.69682263
0.69251858
0.6879304
0.68919023
0.69768395
0.71050576
0.72547835
0.73824085
0.74678107
0.75440069
0.76265488
0.7719217
0.78245458
0.79113758
0.79653806
0.79985846
0.79994536
0.79613643
0.78823922
0.77476202
0.75828756
0.74330929
0.73087933
0.72121964
0.71212662
0.6992297
0.68338133
0.66774014
0.65368753
0.64419953
0.63938976
0.63641913
0.63665651
0.64045819
0.64520644
0.65096448
0.65513608
0.65465148
0.652001
0.64864853
0.64506487
0.6442415
0.64671708
0.65292282
0.66525167
0.68133155
0.69607852
0.70561607
0.70667037
0.70216478
0.70056459
0.70742199
0.72432098
0.74766936
0.76854889
0.78119979
0.78467674
0.7795972
0.77012714
0.76029377
0.75120089
0.74556738
0.74431977
0.74393461
0.74209858
0.73612892
0.72401639
0.71058477
0.70041682
0.69380683
0.69137715
0.68956143
0.68397561
0.67626663
0.66804408
0.65997224
0.65439047
0.6507935
0.64890062
0.65184936
0.66014747
0.67215586
0.68558551
0.69518065
0.69835068
0.69744742
0.69531907
0.69634499
0.70364324
0.71506903
0.72796193
0.73943055
0.74528256
0.74552938
0.74253919
0.73816539
0.73665099
0.73918653
0.74128031
0.73949431
0.73072861
0.71376436
0.69506525
0.68071749
0.67175473
0.66890546
0.66809173
0.66418007
0.65839872
0.65211819
0.64561315
0.64055605
0.63536544
0.62867772
0.62338951
0.62136828
0.62378136
0.63140753
0.64069205
0.64827067
0.65376556
0.65677788
0.65953634
0.66519022
0.67309688
0.68272306
0.69362284
0.70397531
0.71539909
0.7297559
0.74531968
0.76104423
0.77428074
0.78079093
0.78101702
0.77586404
0.76433439
0.74857982
0.72944983
0.70660638
0.68490809
0.66760809
0.65533474
0.64998174
0.64961848
0.65107558
0.65559713
0.66436146
0.67824094
0.69770816
0.71650214
0.72564601
0.72090091
0.70396091
0.68525213
0.67828155
0.686905
0.70434855
0.71801598
0.71694488
0.7034893
0.69046897
0.68842716
0.70103768
0.72143343
0.73628038
0.74021495
0.73566674
0.72680626
0.71935728
0.71384011
0.70647627
0.69876191
0.69303975
0.68906819
0.68804998
0.68722548
0.68309991
0.67805133
0.67366823
0.66947414
0.66610709
0.66195451
0.65711881
0.65611678
0.66074886
0.67067284
0.68662012
0.70919297
0.74216438
0.78920181
0.84428102
0.89329556
0.92006322
0.91392958
0.88077108
0.83927834
0.80722748
0.79457274
0.79761947
0.8022996
0.79867588
0.78395338
0.76012543
0.7349631
0.71385394
0.69705767
0.68643588
0.68116758
0.67719013
0.67418311
0.67066226
0.6654633
0.66241818
0.66252854
0.66316342
0.66270506
0.65788476
0.64807302
0.63887825
0.63480438
0.63842356
0.65077386
0.66753037
0.68478492
0.7016274
0.71615403
0.72868828
0.74074414
0.75118219
0.76057389
0.76988044
0.77727556
0.78274513
0.78611509
0.7852264
0.78173835
0.77782301
0.77315844
0.76977134
0.76780684
0.76454884
0.76113877
0.75798235
0.75371396
0.75073263
0.74876103
0.74549932
0.74231798
0.73936667
0.73661833
0.73701886
0.74017497
0.74316917
0.74414751
0.73951687
0.72838357
0.71575432
0.70731475
0.70941443
0.72641697
0.75470267
0.78692511
0.81515363
0.83164494
0.8352822
0.82966012
0.81766079
0.80331908
0.78855248
0.77191478
0.7553277
0.74135891
0.73039816
0.72486982
0.72395343
0.72266232
0.72018716
0.7159346
0.70891386
0.70352185
0.70120345
0.70006565
0.7005025
0.70034746
0.69737077
0.69386033
0.69039359
0.68657152
0.68352679
0.67958121
0.67375356
0.66853945
0.6653049
0.66610957
0.67308879
0.68415438
0.69770405
0.71379336
0.73172453
0.75365513
0.78136968
0.81151409
0.83958365
0.85947717
0.86445241
0.85462716
0.83438962
0.80879423
0.78568513
0.76902635
0.7568643
0.74844156
0.74096072
0.7302772
0.71835563
0.70662696
0.69546723
0.68847678
0.68543414
0.68326599
0.68159683
0.67879774
0.67445705
0.6721159
0.67269958
0.67534783
0.67969493
0.6828257
0.68343554
0.68305727
0.6813075
0.67871214
0.67682932
0.67585872
0.67928822
0.69107608
0.71064719
0.73638464
0.76392894
0.78653742
0.80264459
0.81315102
0.81833052
0.82115948
0.82212392
0.81862377
0.8120707
0.80351172
0.7923587
0.78207919
0.77298519
0.76250869
0.75191365
0.74096127
0.72909381
0.71976752
0.71357858
0.70900347
0.70612987
0.70256975
0.69694507000000006
0.69176944
0.68809529
0.6868787
0.6892186
0.6927206
0.69565724
0.69769157
0.6968376
0.69366361
0.69065818
0.68993111
0.69693775
0.71559675
0.74379014
0.77829762
0.8137808
0.84445857
0.87059005
0.89200994
0.90460558
0.90636918
0.89558607
0.87376217
0.85132973
0.83575743
0.82618977
0.81821856
0.80315345
0.77639676
0.74511211
0.7185153
0.70219239
0.69719803
0.69643985
0.69258111
0.68523727
0.67624765
0.66899203
0.66631548
0.66594524
0.66574871
0.66577984
0.66513562
0.66480766
0.66584458
0.66684329
0.66928446
0.67532359
0.68515492
0.70154131
0.72544029
0.75414885
0.78653909
0.81785449
0.83992532
0.85001568
0.84844976
0.83922213
0.83327349
0.83622501
0.84494003
0.8533017
0.8518013
0.83509372
0.80880834
0.7810566
0.75810377
0.74343978
0.73318828
0.72207278
0.70938962
0.69540623
0.68227357
0.67303436
0.66677523
0.66257684
0.66079122
0.66000352
0.66039192
0.66233519
0.66359202
0.66418375
0.6648835
0.66519334
0.66808108
0.6756446
0.68665131
0.70172699
0.71893558
0.7337452
0.74599862
0.7548256
0.75827446
0.75946201
0.75957275
0.75864204
0.76008662
0.76370884000000006
0.76658572
0.76830371
0.7665042
0.75967845
0.75081588
0.74121027
0.73146288
0.7232991
0.7153602
0.70679344
0.69919673
0.69270514
0.68835179
0.68711342
0.68620349
0.68372085
0.67955767
0.6737508
0.66978874
0.67009704
0.67178811
0.6723705
0.67043898
0.6674893
0.67272332
0.69359406
0.72857242
0.77102676
0.80841082
0.82932522
0.83451517
0.82920293
0.81832326
0.80693011
0.79391538
0.77662774
0.7582281
0.74201988
0.73051773
0.7232435
0.71645205
0.70942272
0.70469681
0.70286373
0.70166966
0.69685245
0.68717489
0.67973375
0.68224629
0.6924608
0.69896011
0.69072045
0.67131456
0.66108408
0.67509298
0.70280262
0.71433977
0.68869926
0.64410614
0.63361917
0.69326282
