0.9126485
0.98084262
1.0796043
1.1687684
1.2183261
1.2233653
1.2007194
1.1743077
1.161622
1.1649436
1.1731749
1.17032
1.1500409
1.1166042
1.0812109
1.0536836
1.0394113
1.0354708
1.0337131
1.0269797
1.0142102
0.99856865
0.98366887
0.97279467
0.96687077
0.96425811
0.96115724
0.95714576
0.95274805
0.94862606
0.94407558
0.93959384
0.93513489
0.93004625
0.92523552
0.92283116
0.9232847
0.92463161
0.92687363
0.93011346
0.93540336
0.94372064
0.96113993
0.99039695
1.0304211
1.0759205
1.1214044
1.1590156
1.1820055
1.189435
1.1860788
1.1777748
1.1680148
1.1608053
1.1565438
1.1527728
1.1445662
1.1332602
1.1198838
1.1057505
1.0913408
1.0790144
1.0684496
1.0578558
1.0470559
1.0377302
1.030346
1.0228439
1.0146494
1.0041875
0.98981271
0.96955374
0.94746388
0.92665875
0.90913242
0.89488758
0.88510553
0.87909586
0.87617594
0.87868931
0.89149604
0.91791024
0.95716012
1.0075168
1.0635158
1.1176668
1.1615232
1.1937759
1.2138655
1.2226687
1.2215193
1.214284
1.2024242
1.1859482
1.1665658
1.1476091
1.1309047
1.1154862
1.1021557
1.0902417
1.0782036
1.0630659
1.0478659
1.0343239
1.0233442
1.0143342
1.0084636
1.0044392
0.9998841
0.99445585
0.99006209
0.98781706
0.98670759
0.98719768
0.98825039
0.98766367
0.98171744
0.9718197
0.95892272
0.9443562
0.92939549
0.91767305
0.91084998
0.90902121
0.91321953
0.92511073
0.94462696
0.9694112
0.99921784
1.0322356
1.0654291
1.0939256
1.1178766
1.1360551
1.1475245
1.1518784
1.1521085
1.1495645
1.1440569
1.1363258
1.1281793
1.119877
1.1096248
1.0985638
1.0874264
1.0761435
1.0623034
1.0482132
1.0342049
1.0200369
1.0050013
0.9912997
0.97926712
0.96768858
0.95613035
0.9451395
0.93406232
0.92094541
0.90699244
0.89363758
0.88216633
0.87211507
0.86632807
0.86477393
0.86573948
0.86671693
0.86830293
0.87137318
0.8779501
0.89275721
0.92107014
0.96435784
1.0184373
1.0779385
1.1346201
1.180225
1.2079779
1.2200159
1.2200898
1.2129098
1.2020842
1.1917042
1.1817367
1.1696341
1.1544563
1.1378566
1.1211982
1.1038889
1.0874575
1.0718225
1.055344
1.0341094
1.0101856
0.98485217
0.9594444
0.93458639
0.91314028
0.8955477
0.88060738
0.86811954
0.85927644
0.85405923
0.85044687
0.84841792
0.84755266
0.8473757
0.84648781
0.84783941
0.85226696
0.85881311
0.86490858
0.87019167
0.87413338
0.87778608
0.88614856
0.90592648
0.94066378
0.98831815
1.0453548
1.1048018
1.1593241
1.2028321
1.2374355
1.2654436
1.288195
1.3042017
1.3119256
1.30703
1.2857284
1.2496955
1.2064394
1.1643683
1.1286728
1.1033295
1.0870198
1.074189
1.0564729
1.0324917
1.0028437
0.97077454
0.94018537
0.91662005
0.90149021
0.89226093
0.8856064
0.87922526
0.87095325
0.85897559
0.84564049
0.83395203
0.82628509000000006
0.82220763
0.82334944
0.82782515
0.83215242
0.83294246
0.83128539
0.82992363
0.83351107
0.84926525
0.88366571
0.93762907
1.0049986
1.0780119
1.1463926
1.2011601
1.2362342
1.2554147
1.2633456
1.264012
1.2585131
1.2480069
1.2301351
1.202051
1.1651518
1.1255896
1.0897606
1.0609144
1.0417232
1.0304214
1.0217391
1.0080537
0.98837354
0.96337438
0.93612929
0.91033779
0.89126514
0.87993495
0.87327345
0.86730687
0.85934636
0.84773861
0.83222167
0.81684018
0.80532537
0.7988829
0.79432574
0.79038653
0.78508268
0.77938579
0.77832726
0.79175876
0.82660208
0.88324748
0.95617106
1.0350176
1.1069844
1.1616504
1.1983703
1.2216634
1.2374998
1.2476632
1.2540701
1.2525952
1.238068
1.2082765
1.1692946
1.1290542
1.0940682
1.0683005
1.0518698
1.0396274
1.0238406
1.0019465
0.97491092
0.94606183
0.91743445
0.89383283
0.87578247
0.86125589
0.84721708
0.83406455
0.82211141
0.81152341
0.80331317
0.79867203
0.79667081
0.79429747
0.79084559
0.78622129
0.78121467
0.77637035
0.7767198
0.7856627
0.80516274
0.83543899
0.87741375
0.92875736
0.98505509
1.0428266
1.0991715
1.1497621
1.1889154
1.214579
1.2254024
1.2216028
1.2039812
1.1799554
1.1551992
1.1331794
1.1140792
1.0983935
1.0833841
1.065357
1.0434482
1.0201263
0.99765562
0.97609148
0.95656014
0.93848044
0.92025033
0.89916321
0.87803738
0.85902396
0.84351997
0.83115919
0.82261638
0.8164877
0.81076029
0.80533959
0.80179434
0.80015624
0.79757303
0.79220911
0.78235504
0.76846353
0.75332383
0.74686251
0.75757453
0.79001863
0.84248452
0.90941375
0.9797673
1.0418389
1.0893187
1.1219984
1.1424316
1.1530598
1.1579276
1.1582287
1.1531057
1.1398863
1.1224561
1.1040636
1.0872311
1.0721833
1.0597816
1.0476919
1.0326585
1.0142835
0.99536379
0.97812756
0.96199625
0.94693724
0.93147385
0.91421418
0.8940728
0.87594161
0.86315409
0.85607713
0.85101542
0.84438674
0.83215843
0.81331492
0.79240885
0.77707329
0.77153494
0.77274052
0.77428447
0.76847017
0.75250566
0.73152352
0.72305334
0.74434618
0.80453777
0.89845413
1.0091234
1.110522
1.178943
1.2044758
1.1934649
1.16216
1.1276603
1.1040726
1.0949378
1.0944897
1.0913666
1.0815299
1.064257
1.0428048
1.0212708
1.0048283
0.99341097
0.98291196
0.96966932
0.95285989
0.93305814
0.91125582
0.89159788
0.87713749
0.86867186
0.86341025
0.86117385
0.85960164
0.85602931
0.84818731
0.8372468
0.82417013
0.80967252
0.79542948
0.78364633
0.77506469
0.76895475
0.76733096
0.77303178
0.7894774
0.81845228
0.86437845
0.92633362
0.99878652
1.0725517
1.1392392
1.1896541
1.2170203
1.2208149
1.2062086
1.1802617
1.1490847
1.1199
1.0964645
1.078898
1.0630583
1.0491605
1.0357965
1.0215076
1.0045861
0.98632548
0.96654116
0.94433116
0.92055468
0.8979298
0.87798002
0.85977705
0.84392795
0.83034349
0.81886875
0.80854365
0.80290369
0.80297152
0.80697735
0.81027566
0.80973726
0.80278599
0.78984692
0.77610347
0.76883122
0.77154787
0.78097986
0.79191082
0.79852299
0.7997921
0.80129756
0.81899086
0.86578674
0.94498604
1.0459692
1.1486498
1.2275122
1.2631463
1.2524267
1.2089498
1.1544794
1.1082945
1.0830273
1.0783577
1.0840881
1.0855913
1.0776104
1.0602353
1.0383666
1.0171938
1.0014162
0.98951226
0.9758508
0.95619237
0.93080205
0.90276578
0.87583468
0.85566779
0.84496443
0.84243686
0.84244155
0.84219943
0.83812015
0.82796595
0.81130803
0.79194105
0.77355951
0.75899502
0.75081087
0.75029057
0.75537097
0.76135631
0.76686553
0.7733546
0.78613845
0.8118596
0.86065187
0.93470385
1.0266345
1.1202582
1.1976586
1.2420882
1.2452123
1.2126083
1.1612721
1.1105188
1.0735229
1.0566334
1.0555889
1.0594782
1.0555267
1.0409866
1.0177047
0.99096056
0.96536531
0.94536734
0.93002431
0.91521818
0.89837021
0.88031706
0.86281652
0.84651386
0.83328667
0.82303736
0.81418206
0.80382465
0.79371287
0.7848478
0.77750069
0.77051046
0.76394179
0.75681841
0.74895205
0.74358203
0.74679097
0.76377628
0.79599067
0.84325396
0.90044282
0.95902289
1.0087142
1.0465058
1.0719288
1.0887602
1.1033614
1.1240315
1.1530587
1.1852716
1.2116786
1.2232968
1.21319
1.1794187
1.130271
1.078128
1.0341875
1.0024779
0.98426058
0.97316297
0.96035033
0.93897645
0.90993715
0.87751743
0.84714683
0.82396093
0.81058312
0.8048067
0.80096178
0.79608074
0.78932002
0.78205833
0.77550236
0.77353811
0.77609462
0.7799144
0.78025787
0.77612185
0.76927689
0.76533911
0.77414642
0.80568961
0.86371702
0.94244915
1.0308632
1.112977
1.1735203
1.2020737
1.2017167
1.1811421
1.1518106
1.1231994
1.102358
1.0885997
1.0762494
1.0606516
1.0409853
1.0181212
0.99280346
0.96841301
0.9465898
0.92692398
0.90651539
0.88725781
0.8699778
0.85500624
0.84147287
0.83027082
0.8206234
0.81132039
0.80305226
0.79806486
0.79691307
0.79713806
0.79705362
0.79470702
0.78952619
0.78216907
0.77857525
0.78251912
0.79408008
0.8091158
0.82374715
0.8344703
0.84186206
0.85358143
0.88074009
0.93022894
0.99947719
1.0792811
1.1534653
1.2055206
1.2243447
1.2136803
1.1843883
1.150315
1.1220243
1.1057292
1.0985295
1.0920108
1.0792999
1.0588458
1.0323852
1.0024689
0.97406107
0.94967386
0.9287079
0.90729239
0.88609065
0.8654636
0.84641536
0.82965783
0.81762117
0.81005365
0.80467571
0.79989459
0.79574029
0.79223585
0.78889379
0.78778706
0.7903851
0.79681372
0.80447995
0.81333802
0.82121191
0.82585623
0.82636929
0.82666262
0.83171662
0.846897
0.87819051
0.92902256
0.99630143
1.0701236
1.1398997
1.1942769
1.2249154
1.2278704
1.210056
1.1805954
1.148584
1.1198779
1.0985849
1.0828641
1.0674099
1.0484307
1.0257377
1.0003723
0.97289519
0.94642051
0.92276564
0.9019256
0.88132156
0.86259484
0.84622604
0.83244925
0.82083171
0.81287991
0.8081371
0.80476668
0.80174312
0.79907895
0.79580303
0.7896085
0.78074683
0.76993865
0.75870829
0.74842893
0.74481119
0.75158481
0.77029192
0.79975924
0.83863348
0.88246534
0.92574069
0.96579664
1.002965
1.0383182
1.072476
1.1081863
1.1453555
1.1804763
1.2061616
1.2189405
1.2151417
1.1939323
1.1579672
1.1157689
1.0747736
1.0391827
1.0107443
0.98916478
0.97095879
0.95099006
0.92847386
0.90469825
0.88185669
0.86022501
0.8429016
0.82968112
0.81865693
0.80728749
0.79627478
0.78590637
0.77601955
0.76724032
0.7607235
0.75610806
0.75142828
0.74702829
0.74331036
0.74050939
0.73748996
0.73710422
0.74097428
0.75088361
0.76896693
0.79949632
0.84390112
0.900309
0.96544087
1.0343335
1.0994563
1.152163
1.1886343
1.207249
1.2088065
1.194561
1.1718879
1.1460614
1.120362
1.0955597
1.0737443
1.054371
1.0355943
1.0170312
0.99995701
0.98433509
0.96783915
0.95004375
0.93048069
0.90926207
0.88623896
0.86598634
0.85085726
0.84049566
0.83145995
0.82122733
0.80686005
0.78743279
0.76626742
0.74933235
0.7403479
0.73796641
0.73901824
0.73869014
0.73433011
0.72740048
0.72857458
0.74897716
0.7958284
0.86817528
0.95806984
1.0494319
1.1244839
1.1721478
1.1907854
1.1856835
1.1652824
1.1409304
1.1197931
1.1035246
1.0878424
1.0721272
1.0545626
1.0344668
1.0120585
0.99103345
0.97284118
0.95663706
0.9416165
0.92764979
0.91333528
0.89597673
0.87618403
0.85543496
0.83572441
0.81770102
0.80532745
0.79913963
0.79673914
0.79344781
0.78687675
0.77540732
0.75974183
0.74410755
0.73408777
0.73198212
0.73495377
0.73947611
0.74218796
0.7435306
0.74831987
0.76945875
0.81669688
0.89209858
0.98703099
1.0860837
1.1687648
1.2182043
1.2295557
1.2107353
1.1763191
1.1403299
1.1139822
1.099769
1.0930252
1.0848583
1.0730906
1.0576034
1.0404661
1.0233107
1.0088361
0.99575696
0.98051401
0.96133112
0.9396195
0.91708396
0.89383112
0.87133902
0.84981142
0.82882177
0.80712058
0.78854619
0.77557807
0.76881481
0.76609799
0.76592615
0.76556622
0.76316126
0.76011312
0.75998454
0.76416098
0.76961097
0.77297111
0.77048732
0.76152074
0.74962429
0.7477212
0.76745265
0.81528106
0.88883102
0.97909621
1.0697181
1.1436563
1.1911577
1.2119769
1.21177
1.1976084
1.1783463
1.1588026
1.1395701
1.117427
1.094162
1.0709671
1.049259
1.0294867
1.0135094
1.0001173
0.98632709
0.97068798
0.95430155
0.93841063
0.92309555
0.91014068
0.89991251
0.89111934
0.88023732
0.86778153
0.85369595
0.83850919
0.82302983
0.8103908
0.80169746
0.79604808
0.79271339
0.79213136
0.79494465
0.80201739
0.81747752
0.84467623
0.88419986
0.93145472
0.98280308
1.0310496
1.0694482
1.0942244
1.1078211
1.1134345
1.1137107
1.1113271
1.1077978
1.1019167
1.0906779
1.0752882
1.058009
1.0409763
1.0234074
1.0076137
0.99265276
0.97680389
0.95885897
0.94183546
0.92776899
0.91677333
0.90829869
0.90151209
0.89420174
0.88378328
0.87197855
0.86141932
0.85382636
0.84749725
0.84277017
0.83786836
0.83163813
0.82442777
0.81987146
0.81914676
0.81953882
0.81662153
0.80679626
0.78920013
0.76800611
0.75587543
0.76636685
0.80765353
0.87649083
0.96298654
1.0484927
1.1143202
1.1491041
1.1546846
1.1403676
1.1181185
1.098831
1.0882759
1.0846474
1.0808088
1.0730114
1.0602852
1.0442444
1.0262198
1.0104514
0.99731567
0.9849726
0.97095636
0.95597137
0.94017828
0.92283632
0.90380821
0.88392691
0.86371207
0.84365194
0.82780375
0.81934657
0.81816472
0.8187751
0.81717992
0.8088286
0.79295661
0.77352415
0.75926205
0.75527789
0.7596382
0.76556373
0.76642553
0.760771
0.75606085
0.77057921
0.82115291
0.91185779
1.0259024
1.1337808
1.1989186
1.1955171
1.1214051
1.0025204
0.87875034
0.78759873
0.75121549
0.76969656
0.82346525
0.88477973
0.93441798
0.96504147
0.97962968
0.98363109
0.98430873
0.98182237000000006
0.97236926
0.95264809
0.92611717
0.89883178
0.87664718
0.86341806
0.85928997
0.85968878
0.85801775
0.85235914
0.84391367
0.83549033
0.82803372
0.82392106
0.82179467
0.81887962
0.81280359
0.80509892
0.79739552
0.79061656
0.78610381
0.78541914
0.78908923
0.79686836
0.81200827
0.83656703
0.87000658
0.90746597
0.94515006
0.9768752
0.99740516
1.0044418
1.0015625
0.99341735
0.98383188
0.97609865
0.97206405
0.97038865
0.96735974
0.96255616
0.9562054
0.948548
0.93901674
0.92792282
0.91369185
0.89551169
0.87515055
0.85704843
0.84453829
0.83823667
0.83626835
0.83439883
0.82852623
0.81794347
0.80753935
0.8027156
0.80545484
0.81162435
0.81441437
0.80663765
0.78762388
0.76569641
0.75413507
0.76090027
0.78233165
0.80484449
0.81277624
0.80061992
0.78123914
0.78375316
0.83424006
0.93582549
1.0570976
1.1412669
