0.69236786
0.72123716
0.76508011
0.79262582
0.79453202
0.78312497
0.77680847
0.78734878
0.81094644
0.8338768
0.84581797
0.84734245
0.84632328
0.85014706
0.86156799
0.87626852
0.88628722
0.88885159
0.88609145
0.88224393
0.88151061
0.88597595
0.89400512
0.90186871
0.90799454
0.91190159
0.91288921
0.91328686
0.91513166
0.91804185
0.92195609
0.92570845
0.92657544
0.92301059
0.91752975
0.91221809
0.90647991000000006
0.90228156
0.89803943
0.88990427
0.87687529
0.85998474
0.84058648
0.82103608
0.80581983
0.79676768
0.79197969
0.79254165
0.79677363
0.80138706
0.80589107
0.81075724
0.8156443
0.82065204
0.82795496
0.83749796
0.84636753
0.85575783
0.86513548
0.87328441
0.88205001
0.8934979
0.90754726
0.92310863
0.93991273
0.95537481
0.96509538
0.96979033
0.96941708
0.96377576
0.95570293
0.94806383
0.94164464
0.93658812
0.93442296
0.93462485
0.93435558
0.93473928
0.93471232
0.93168542
0.92558822
0.91754478
0.90852853
0.90050458
0.89756833
0.90074427
0.90632316
0.9124243
0.91440126
0.90736924
0.89149377
0.87008256
0.84656184
0.82426315000000006
0.80740574
0.79692763
0.79033146
0.78887605
0.79124573
0.79413592
0.79653963
0.79816112
0.7985938
0.79925619
0.80442303
0.81548574
0.82924862
0.84449746
0.85734039
0.86428414
0.86725875
0.87045956
0.87648291
0.88579204
0.89791862
0.90912695
0.91442715
0.91538972
0.91389129
0.91130034
0.91043554
0.91248104
0.91586645
0.91897387
0.92272228
0.92673838
0.92840958
0.92869815
0.9264964
0.92005245
0.91097155
0.90190222
0.89390195
0.88685936
0.88118084
0.87509511
0.86538879
0.85391205
0.84185098
0.82949819
0.81875506
0.81067504
0.80425143
0.79854997
0.79485852
0.79333754
0.79238524
0.79388775
0.79717123
0.7998387
0.80180883
0.80343729
0.80428737
0.80465413
0.80684731
0.81115908
0.81527384
0.82022194
0.82463096
0.82593361
0.82445648
0.82115987
0.81595351
0.80906954
0.80264301
0.79691449
0.78991337
0.7837459
0.7783998
0.77228718
0.76593165
0.75980747
0.75284154
0.74425503
0.73593542
0.72884394
0.72229437
0.71951965
0.72112422
0.72516652
0.73080683
0.73698673
0.7415945
0.74348481
0.74457117
0.7457262
0.74560217
0.74648406
0.74854791
0.75070516
0.75429602
0.76073914
0.76929213
0.77828612
0.787623
0.79608982
0.80170829
0.80780386
0.81622584
0.82662115
0.83894811
0.85164666
0.86129138
0.86548986000000006
0.86563762
0.86337576
0.85910363
0.85637699
0.85574978
0.85537657
0.85496901
0.85474249
0.85422025
0.85340289
0.85430085
0.85716059
0.85969176
0.86274806
0.8652244
0.86497008
0.86254173
0.85950611
0.85656705
0.85424465
0.85410697
0.85500565
0.85280667
0.84713172
0.83685512
0.82130894
0.80372727
0.78839752
0.77769716
0.77237048
0.77306788
0.77721392
0.77970493
0.78047661
0.77939311
0.77680777
0.77612619
0.78000119
0.78745911
0.79539785
0.80184981
0.80432374
0.80082308
0.79575842
0.79245622
0.7917673
0.79440951
0.79919382
0.80314148
0.80469866
0.80603925
0.80865413
0.8115017
0.81599549
0.82050846
0.82231611
0.82229247
0.82276746
0.82486251
0.82862042
0.83430688
0.83958788
0.84057777
0.83876641
0.83548222
0.8314188
0.82878438
0.82862783
0.82936956
0.82892926
0.82745954
0.8243028
0.81746078
0.80931484
0.80070051
0.79122477
0.78262826
0.77656051
0.7727186
0.77021182
0.76975873
0.77051514
0.76991821
0.76992311
0.77106245
0.77257271
0.77549622
0.78035658
0.7855102
0.78903132
0.7914115
0.79252985
0.79134376
0.79126665
0.7935145
0.79695469
0.80144565
0.80623772
0.80936644
0.809965
0.81033265
0.81195599
0.81418228
0.81928429
0.82632693
0.83214555
0.83574362
0.83715768
0.83635813
0.83438739
0.8343214
0.83679032
0.83908482
0.84158341
0.84321438
0.84281196
0.84249243
0.84459035
0.84850254
0.85140995
0.8512475
0.84518709
0.83095904
0.81345201
0.79745509
0.7856224
0.78007766
0.78019175
0.78231142
0.78327293
0.78386407
0.78501926
0.78593774
0.78891374
0.79295302
0.79494742
0.7944892
0.79271758
0.79059305
0.78954023
0.79237491
0.7991388
0.80674577
0.81546539
0.82377934
0.82949821
0.83347521
0.83731323
0.84136504
0.84577023
0.85202068
0.85940366
0.86488667
0.86958378
0.87319852
0.8746545
0.87538142
0.87670411
0.87791703
0.87784925
0.87734616
0.87631804
0.87345218
0.87176751
0.8720812
0.87269111
0.87266292
0.87051505
0.86374987
0.85136806
0.8362835
0.82124972
0.8071806
0.79798884
0.79418223
0.79345643
0.79484722
0.79749308
0.79951367
0.79970621
0.79956112
0.79956271
0.79850728
0.79924218
0.80232237
0.80629018
0.8112027
0.81672562
0.82106503
0.82303892
0.82418221
0.82509529
0.82468338
0.82572263
0.82843114
0.8310062
0.83347125
0.8358636
0.83706644
0.8366137
0.83653949
0.83740254
0.83748296
0.83866901
0.8404801
0.84099677
0.84068597
0.84042379
0.83976411
0.83819879
0.83704267
0.83605784
0.83310429
0.83000895
0.82668355
0.82152202
0.81494176
0.8077526
0.7999988
0.79246791
0.78807815
0.78768119
0.78906686
0.79270653
0.79681881
0.79897845
0.8000444
0.80179487
0.80462804
0.80822049
0.81297315
0.81730757
0.81832323
0.81786229
0.81678674
0.81495327
0.81376854
0.81375934
0.81358491
0.81221586
0.81095397
0.81013342
0.80840142
0.80779737
0.80791883
0.80675666
0.80443694
0.80137281
0.79693285
0.79086342
0.78488839
0.77921074
0.77203493
0.76534457
0.75916512
0.75205263
0.74460667
0.73759887
0.73041503
0.72255382
0.71576591
0.71033408
0.70430724
0.6996129
0.69600872
0.69163299
0.6869523
0.68305104
0.67998788
0.67810729
0.67987321
0.68553273
0.69212393
0.70007669
0.70760578
0.71191947
0.71360927
0.71483418
0.71701696
0.72142029
0.73056874
0.74401868
0.75797305
0.77232268
0.7855898
0.79607457
0.80537689
0.81589652
0.82830154
0.8421592
0.85768169
0.8727563
0.88335945
0.89013409
0.89347532
0.89379544
0.89402403
0.89687534
0.90250354
0.9096176
0.9180085
0.92613156
0.93122296
0.93515972
0.93871444
0.94111001
0.94286894
0.9442434
0.94396412
0.94100199
0.93696034
0.9322406
0.92483036
0.91623162
0.9059817
0.89242408
0.87665122
0.86071169
0.84536999
0.83099013
0.8195999
0.81132091
0.8040309
0.79993647
0.79922183
0.80011274
0.80247266
0.80585806
0.80836615
0.80891879
0.80973059
0.8122328
0.81588812
0.82370253
0.83532676
0.84774491
0.85971537
0.87038484
0.87848219
0.88420482
0.89052805
0.89854606
0.90634943
0.91505533
0.92299427
0.92736108
0.92868669
0.92853391
0.9274095
0.9257132
0.92522482
0.92549515
0.92388789
0.92218554
0.92058733
0.91794632
0.91504531
0.91243582
0.90886011
0.90308717
0.89648443
0.88939169
0.88024969
0.8715742
0.86354904
0.85438683
0.84430247
0.83397965
0.82312796
0.81202577
0.80342259
0.79819655
0.79431179
0.79327982
0.79414963
0.79459223
0.79513819
0.79692986
0.79965286
0.80285612
0.80797294
0.81468487
0.82084442
0.82891854
0.83930725
0.85056652
0.86285122
0.87562931
0.88660481
0.89410934
0.89949484
0.90353019
0.905601
0.90905692
0.91426121
0.91902212
0.92263022
0.92448085
0.92341432
0.91965202
0.91627536
0.91457502
0.91273254
0.91183903
0.91071617
0.90741864
0.90325228
0.90018416
0.89790209
0.89453387
0.88938648
0.88089191
0.86747416
0.85372816
0.84287805
0.83505713
0.82988155
0.82541059
0.81874193
0.80939881
0.80140678
0.79755978
0.79649181
0.79827261
0.79957414
0.79689998
0.79209807
0.78946771
0.7915783
0.79846627
0.80911766
0.81962654
0.82565113
0.8301914
0.83642808
0.84582733
0.85942777
0.8750381
0.88745078
0.89278107
0.89208035
0.88753849
0.88044235
0.87544201
0.87343916
0.87254266
0.87270892
0.87422597
0.87616288
0.87763361
0.87971391
0.881816
0.88138558
0.88041873
0.87916026
0.87621174
0.87196925
0.86682599
0.85981405
0.85042632
0.84091149
0.8322624
0.82313182
0.81575326
0.80994455
0.80379896
0.79775944
0.7929037
0.78920906
0.7867851
0.78764136
0.79160858
0.79574598
0.80104704
0.80667867
0.81108366
0.81581692
0.82296074
0.83285716
0.84510058
0.86023738
0.8763681
0.88932113
0.89952723
0.9063028
0.9084887
0.90789973
0.90668871
0.90531257
0.90388261
0.9041005
0.90556578
0.90545577
0.90517581
0.90442537
0.90188919
0.89890899
0.89713806
0.89638641
0.89580948
0.89605547
0.89592733
0.89221237
0.88641005
0.87872297
0.86823345
0.85633992
0.84483171
0.83423439
0.82524936
0.82059794
0.82070703
0.82272718
0.82700587
0.83185383
0.83493789
0.83728674
0.84049889
0.84412155
0.84690544
0.8494785
0.85194324
0.85419881
0.86104199
0.87368861
0.88851755
0.90096564
0.90608367
0.90092462
0.88841787
0.87782588
0.87674567
0.88609681
0.90419982
0.92295854
0.93337301
0.93332212
0.92615145
0.91656932
0.90837509
0.90392988
0.90109447
0.89536925
0.888075
0.88082607
0.8744875
0.87063286
0.86863195
0.86497955
0.85670394
0.84481041
0.83087597
0.81551572
0.80299327
0.79437841
0.78809344
0.78406352
0.78216509
0.78092777
0.77914633
0.77777366
0.77632584
0.77259749
0.76896727
0.76616875
0.76377043
0.76345726
0.7663636
0.77119717
0.77601914
0.78069437
0.78410167
0.78446274
0.78520357
0.78796567
0.79227622
0.79852614
0.80588154
0.81175248
0.81447482
0.8156016
0.81611006
0.81525948
0.81572291
0.81739292
0.81831224
0.81867854
0.81907139
0.81890542
0.81771158
0.81696709
0.81667663
0.8150092
0.81418189
0.81456582
0.81480948
0.81504925
0.81503445
0.81286111
0.80693691
0.79858112
0.78869753
0.77692376
0.76705439
0.76053252
0.75634416
0.75456507
0.75492671
0.7557866
0.75603978
0.75729315
0.7598645
0.76171878
0.76457005
0.76810204
0.77081853
0.77388534
0.77887841
0.78551187
0.79268902
0.80067185
0.80803039
0.81196817
0.8146341
0.8171531
0.81954941
0.82342778
0.82948859
0.83614942
0.84164423
0.8466009
0.85107449
0.85402851
0.85840394
0.86460004
0.87057296
0.87550229
0.87870257
0.87906105
0.8768911
0.8754858
0.87659838
0.87883161
0.88325123
0.88834661
0.89143158
0.89270522
0.89315641
0.89205136
0.88768328
0.87976678
0.86697101
0.84753873
0.82595484
0.80621165
0.79049546
0.78114717
0.77809302
0.77790372
0.77689856
0.77483763
0.77182189
0.76719398
0.76492885
0.76634927
0.77005954
0.77591825
0.78357531
0.79136619
0.79826953
0.80602704
0.81499003
0.82317177
0.83214892
0.84091268
0.84694532
0.85054049
0.8530563
0.85526411
0.85834733
0.86491837
0.87460808
0.88355081
0.89119328
0.89526362
0.89351687
0.88784963
0.88171289
0.87746912
0.87673121
0.88164106
0.89127742
0.90166275
0.91258566
0.92238477
0.92852915
0.93102467
0.93031818
0.92549106
0.91580974
0.90322114
0.8888834
0.87239117
0.85757609
0.8459956
0.83689698
0.8307388
0.82746411
0.8252793
0.82266704
0.82082114
0.81976543
0.81751425
0.81613182
0.8155519
0.81435276
0.81356088
0.81441828
0.81660211
0.81965877
0.82488235
0.83190282
0.83854779
0.84684427
0.85666892
0.86607004
0.87488308
0.88284917
0.88863195
0.89181613
0.89459484
0.89748185
0.89839821
0.89883965
0.89810207
0.89475731
0.8907525
0.8887596
0.88953618
0.89248985
0.89741876
0.9014239
0.89957659
0.8923016
0.87987263
0.86266584
0.84402304
0.82737662
0.81393791
0.80391204
0.79864417
0.79712541
0.79577716
0.79510544
0.79422991
0.791705
0.78908787
0.78839411
0.78975234
0.79246798
0.79706799
0.80214235
0.80458404
0.80624793
0.80776863
0.80885346
0.81136042
0.8166654
0.82413404
0.83286641
0.843493
0.85466779
0.86292821
0.86889556
0.87195215
0.87138004
0.86975832
0.86976416
0.8716208
0.8741537
0.87700425
0.87837718
0.87587735
0.87241871
0.86956794
0.86677912
0.86422863
0.86145798
0.85715222
0.85145071
0.84745531
0.84614817
0.84444997
0.84110599
0.83273308
0.81671083
0.79597525
0.77613172
0.76122457
0.75259409
0.75004199
0.74975607
0.74646602
0.74134075
0.73620146
0.73243132
0.73245988
0.7366247
0.74224187
0.74665993
0.75027654
0.75324378
0.75448934
0.75692243
0.76112026
0.76609868
0.77300866
0.78269065
0.79376679000000006
0.80407762
0.81291772
0.81858286
0.81894984
0.81740053
0.81613923
0.8155775
0.81694176
0.8201453
0.82310251
0.82420941
0.82462424
0.82451309
0.82197358
0.81843954
0.8132344
0.80460945
0.79380478
0.78332457
0.77470366
0.76897159
0.76814069
0.77151581
0.77540443
0.77972784
0.78288407
0.78243395
0.77870109
0.77297342
0.76573796
0.7578336
0.75218434
0.7497853
0.74875902
0.75042571
0.75376786
0.75636941
0.75839216
0.76068994
0.76306582
0.76553209
0.77005765
0.77703365
0.78483736
0.79556904
0.80903597
0.82310744
0.83722008
0.85064379
0.8614696
0.86854893
0.87354315
0.87709836
0.87788311
0.87818888
0.87821545
0.87672802
0.87465424
0.87311023
0.87155137
0.86913649
0.86709389
0.86557869
0.86319914
0.86276047
0.86450531
0.86577286
0.86466754
0.8594408
0.84835119
0.83202439
0.81529349
0.80198989
0.79239713
0.78843845
0.7883212
0.78843885
0.78832597
0.78922855
0.79174129
0.79610162
0.80354125
0.81271682
0.81989147
0.82592564
0.83050507
0.8325586
0.83355917
0.83505382
0.83706098
0.83980869
0.84564077
0.85515962
0.86636801
0.88013844
0.89409649
0.90382397
0.90764289
0.90576852
0.8994646
0.89202276
0.88878125
0.89136633
0.89612399
0.90088829
0.90145676
0.89483633
0.88383542
0.87377459
0.86801217
0.86689422
0.86936513
0.87134791
0.86796583
0.86125381
0.85376761
0.84680411
0.84187496
0.83823637
0.83261777
0.82284577
0.81117453
0.8001518
0.79039538
0.78526673
0.78430012
0.78445845
0.78502023
0.78619577
0.78736824
0.78816044
0.79011414
0.79293628
0.79555036
0.79868801
0.80145097
0.80342208
0.80691514
0.81327465
0.82124977
0.82820133
0.83154271
0.83036799
0.82812604
0.83277611
0.84721831
0.86596873
0.87873123
0.87608161
0.85873702
0.84100496
0.84095985
0.86389042
0.89496368
0.90943567
0.88969181
0.84468297
0.81061054
0.8240986
0.88958849
0.96503438
