0.81447272
0.82598604
0.86859687
0.91438697
0.93948939
0.93764838
0.91910889
0.90075933
0.89587404
0.90720178
0.92694701
0.94263761
0.94768144
0.94342825
0.9368362
0.93414449
0.93933715
0.9504942
0.96192002
0.96782986
0.96727858
0.96239306
0.95593926
0.95001086
0.94580495
0.94272094
0.93884722
0.93429955
0.93064026
0.92938353
0.92969286
0.93154687
0.93381093
0.93499489
0.93367471
0.93185129
0.93045247
0.92923641
0.92803762
0.92757335
0.92725096
0.92543433
0.9232204
0.92247447
0.92442067000000006
0.92799922
0.93458061
0.94334377
0.95229496
0.95823407
0.96203867
0.96384079
0.9638489
0.96275019
0.9630885
0.96532321
0.9678436
0.96984583
0.9711512
0.97098738
0.9677572
0.96331571
0.95921803
0.95621683
0.95262585
0.95019213
0.94856395
0.94707521
0.9450526
0.94502783
0.94799638
0.9533558
0.96026657
0.96843049
0.97601011
0.98018989
0.98124812
0.98071127
0.98002861
0.97883816
0.97937666
0.98150436
0.9835109
0.98207213
0.9777547
0.97053362
0.96088522
0.95028306
0.94241981
0.93884465
0.93858103
0.9407317
0.94428264
0.94718398
0.9465907
0.94359846
0.93971315
0.93628495
0.93252802
0.93095624
0.93140037
0.93271651
0.93330547
0.93473452
0.93737385
0.94063452
0.94434455
0.94923827
0.95443683
0.95762046
0.9589921
0.95949554
0.95981698
0.9590352
0.95949824
0.96171397
0.96496255
0.96678231
0.96813151
0.96835483
0.96638527
0.96173312
0.95648212
0.95152991
0.94658109
0.94255027
0.94064288
0.94048145
0.93966513
0.93834907
0.93634391
0.93345075
0.92827221
0.92389937
0.92158476
0.92159299
0.9229341
0.92670469
0.93213609
0.93756797
0.94244915
0.94798230000000006
0.95423388
0.95962573
0.96430983
0.96840212
0.97151815
0.97213968
0.97278759
0.97489742
0.97883402
0.98272942
0.98719575
0.9906111
0.9908659
0.98690734
0.98094575
0.97446167
0.96765898
0.9615181
0.95692815
0.95321462
0.94816828
0.94283966
0.93826659
0.93514192
0.93203037
0.93095379
0.93152864
0.93260747
0.93267529
0.9333343
0.93491995
0.93674713
0.9385414
0.94105297
0.94367158
0.94455737
0.94438975
0.94442018
0.94534611
0.94597823
0.94811493
0.95178335
0.95607451
0.95878334
0.96141791
0.96404691
0.9661679
0.96739068
0.96925128
0.97152405
0.97247656
0.97178341
0.97003908
0.96714368
0.96181775
0.95592711
0.95087226
0.94733423
0.94374368
0.94207018
0.94190571
0.94198094
0.94048507
0.93866328
0.93675987
0.93456682
0.93287389
0.93366812
0.93715517
0.94139279
0.94587324
0.94999785
0.95278216
0.95232418
0.95092825
0.95013775
0.95081132
0.95194462
0.95508761
0.95939177
0.96301687
0.96452754
0.96519145
0.96544612
0.96477312
0.96395886
0.964111
0.96484237
0.96389307
0.96187486
0.95912896
0.95582059
0.95048103
0.94581484
0.94235952
0.93966996
0.93634298
0.93353293
0.93091376
0.92749431
0.92342035
0.92046276
0.9191388
0.9182625
0.91830666
0.91956386
0.9215627
0.9223969
0.92384959
0.92660858
0.93058754
0.93402176
0.93806192
0.94192861
0.94428088
0.94442353
0.94432847
0.94485506
0.94549641
0.94672009
0.94924817
0.95253357
0.95454616
0.95641252
0.95897125
0.9624585
0.96479274
0.9673893
0.9692368
0.9686524
0.96382086
0.9565579
0.94801636
0.938972
0.93102801
0.92670748
0.92639914
0.9280892
0.9310563
0.9344139
0.93680319
0.9358796
0.9334629
0.93079075
0.92871954
0.92661956
0.92666456
0.92878081
0.93177281
0.93447524
0.93794472
0.94204981
0.94553827
0.94853697
0.95184593
0.9552416
0.95700075
0.95830064
0.95981212
0.96153595
0.96133386
0.96102878
0.96054575
0.95944297
0.95698956
0.95546765
0.95541726
0.95588472
0.95608802
0.95628273
0.95550373
0.95186931
0.94637391
0.94080862
0.93643965
0.93250005
0.93094541
0.93173959
0.93371915
0.93435599
0.93481473
0.93507186
0.93482657
0.93410488
0.93488356
0.93737843
0.9401511
0.9428328
0.94576579
0.94860149
0.9499164
0.95140359
0.95427632
0.95890139
0.96322165
0.96863513
0.97429154
0.97879003
0.98052103
0.98110997
0.98093303
0.97944028
0.97672055
0.97412307
0.97176905
0.96856141
0.96574316
0.96469187
0.96569271
0.96667826
0.96833615
0.96970159
0.96933069
0.96515419
0.9592945
0.9528475
0.94638087
0.94028127
0.93634323
0.93431026
0.93232302
0.9298933
0.92757599
0.92541976
0.92234733
0.92015097
0.9199077
0.92176391
0.92356979
0.92683171
0.93101044
0.93503652
0.93746037
0.939784
0.94204451
0.94328208
0.94329586
0.9433325
0.94352034
0.94275289
0.94221251
0.94309888
0.94548287
0.94717961
0.94900666
0.95029426
0.94995311
0.94616251
0.94117635
0.9359576
0.93078706
0.92577787
0.92261557
0.92107896
0.91950817
0.91770587
0.91644785
0.91580835
0.91452186
0.914005
0.91493735
0.91721546
0.91873884
0.92121217
0.924486
0.92788738
0.93024774
0.93310569
0.93649885
0.93949051
0.94188747
0.94487285
0.94840888
0.95102581
0.95327842
0.95575188
0.95820728
0.95866049
0.95858548
0.9582957
0.95759246
0.95505646
0.95267066
0.95058472
0.94802234
0.9441824
0.94033612
0.9364203
0.93131733
0.92551342
0.92041458
0.91644168
0.91229793
0.90917485
0.90746882
0.90682831
0.90497111
0.90372913
0.90328319
0.90341683
0.90338097
0.90503111
0.90844034
0.91240137
0.91621704
0.92052434
0.92490585
0.9278501
0.9302169
0.93315924
0.93708107
0.94048776
0.94491237
0.95023218
0.9554276
0.95817236
0.95971528
0.96000043
0.95871809
0.95608798
0.95455514
0.9548862
0.95607379
0.95791178
0.96055008
0.96314955
0.96369728
0.96341718
0.96328821
0.96364965
0.96256542
0.96161755
0.96034272
0.95791003
0.95338627
0.94897934
0.94545496
0.94223311
0.93886097
0.93588729
0.9328148
0.92839891
0.92412376
0.92187971
0.92240279
0.92377119
0.92632081
0.92869818
0.92942874
0.92702551
0.92460507
0.92419631
0.92660231
0.93139253
0.93862039
0.94596419
0.95001146
0.94991292
0.94710857
0.94324616
0.93875815
0.9362915
0.93682239
0.93969234
0.94175918
0.94396191
0.94572433
0.94637242
0.94497709
0.9434499
0.94201037
0.93974458
0.93645174
0.93337914
0.93057943
0.92670886
0.92250898
0.91884824
0.91589491
0.91219741
0.90969691
0.90897623
0.90974524
0.91014783
0.91141459
0.91309804
0.91425603
0.9144369
0.9155178
0.9180371
0.92109024
0.92473221
0.92938006
0.93435191
0.93758652
0.94006748
0.94245542
0.94489796
0.94551684
0.94623959
0.9469992
0.94724403
0.94609262
0.94565049
0.94647684
0.94785288
0.9493571
0.95158982
0.95379188
0.95398748
0.95274253
0.95117892
0.9498289
0.94732646
0.94531491
0.94378688
0.94191502
0.93769204
0.93288547
0.92802813
0.92318777
0.91850576
0.91592657
0.91553942
0.91575097
0.91605904
0.91675326
0.91747023
0.91677646
0.91635807
0.91752411
0.92084198
0.92452631
0.93015056
0.9368899
0.94311961
0.94681574
0.94919185
0.95051941
0.95057684
0.95011268
0.95115758
0.95408995
0.95732553
0.96091348
0.96478321
0.96816019
0.96885424
0.96855266
0.9680646
0.96776901
0.96666821
0.96686019
0.96823281
0.96946619
0.96912132
0.96798859
0.96580696
0.96156179
0.95603817
0.95099449
0.94710696
0.94317663
0.94029208
0.93866939
0.93783269
0.93553222
0.93374084
0.93283822
0.93274975
0.93273842
0.93452595
0.9379903
0.94176778
0.94512654
0.94875526
0.95224631
0.95394585
0.95446138
0.95466789
0.9548394
0.95364489
0.95320699
0.95421809
0.95643096
0.95796114
0.96014936
0.96262479
0.96452975
0.96546733
0.96728832
0.9701437
0.97236413
0.97316207
0.97235708
0.9692207
0.9624065
0.95440347
0.94764539
0.94367985
0.94111691
0.94137251
0.94308009
0.94419337
0.94274309
0.9404569
0.93825159
0.93621332
0.93473402
0.93490578
0.93617572
0.93665142
0.93691728
0.93810523
0.94074583
0.94337781
0.94728168
0.95188053
0.9557855
0.95668609
0.95628956
0.95526792
0.95392047
0.95259667
0.95322011
0.95566562
0.95809507
0.95991953
0.96145843
0.96248626
0.96171774
0.96092919
0.96120922
0.96263481
0.96280053
0.96289625
0.96205186
0.95911455
0.95296871
0.94581572
0.93866112
0.93150517
0.92476013
0.91976499
0.91635934
0.91298813
0.91030632
0.90920688
0.90981477
0.9103602
0.9120434
0.91454958
0.91693888
0.91728961
0.91740052
0.91768328
0.91786296
0.91758097
0.91817483
0.9192243
0.91898228
0.91735725
0.91551335
0.91418904
0.91290793
0.91389464
0.91818713
0.9252677
0.93171682
0.93762756
0.94127021
0.9411243
0.9362838
0.92971919
0.92334871
0.91787528
0.91393845
0.91254607
0.91273686
0.91200525
0.91030593
0.90835134
0.90664149
0.90418075
0.90309846
0.90392366
0.90624448
0.90824086
0.91139862
0.91557675
0.91984565
0.92326666
0.92692754
0.9306073
0.93307874
0.93477112
0.9370737
0.94034742
0.9431034
0.94624205
0.94987928
0.9535236
0.95491987
0.95609169
0.95732129
0.95819777
0.95741613
0.95620583
0.95418169
0.95017989
0.94423649
0.93831718
0.93344282
0.92915007
0.92658668
0.92638833
0.92785629
0.92830433
0.92847776
0.92834785
0.92786686
0.9262122
0.92603812
0.92814177
0.93208568
0.93692792
0.94328729
0.95020808
0.95563577
0.95925476
0.96198537
0.96420212
0.96494921
0.96597721
0.96822211
0.97166995
0.97406366
0.97694882
0.97995418
0.98224675
0.98259593
0.98265472
0.98250924
0.98115053
0.97824088
0.9748717
0.97103622
0.9655417
0.95953034
0.95433878
0.95040335
0.94615167
0.94304635
0.94107677
0.93959136
0.9368387
0.93459476
0.93308435
0.93178242
0.93016186
0.92961546
0.93011356
0.93049354
0.93110034
0.93307253
0.9364617
0.93948568
0.94279246
0.94620485
0.94894914
0.94859626
0.94723826
0.94549443
0.94368517
0.9415717
0.94142561
0.94345977
0.94639718
0.94942311
0.95306214
0.95671213
0.95858205
0.95927261
0.95958191
0.95946723
0.95700478
0.95366404
0.94968087
0.94488975
0.93816633
0.93201918
0.92727952
0.9238292
0.92128909
0.92092062
0.92228475
0.92365325
0.92482984
0.92663819
0.92919704
0.93121676
0.93402642
0.9380985
0.94296337
0.94599572
0.94851839
0.95020663
0.95057669
0.94900433
0.94788413
0.94798293
0.9487257
0.94983507
0.95211515
0.95506594
0.95694762
0.95841589
0.9604259
0.96307059
0.96434164
0.96527564
0.96540585
0.96377548
0.95861799
0.9522365
0.9456626
0.93928383
0.93333396
0.92963897
0.92812143
0.92719354
0.92659335
0.92692072
0.92794666
0.92799671
0.92810982
0.92878162
0.93001147
0.93005033
0.93120059
0.93383235
0.93748065
0.94074083
0.94466624
0.94866745
0.95134771
0.95244795
0.95350633
0.95502147
0.955993
0.95725698
0.95946102
0.96229101
0.96365826
0.96503229
0.96668379
0.96821388
0.96776928
0.96681754
0.96506022
0.96162372
0.95611075
0.95062446
0.94598791
0.94165128
0.93806514
0.93596772
0.93480624
0.93250015
0.92996638
0.92796959
0.9270143
0.9258004
0.92673425
0.92993041
0.93447263
0.93855029
0.94297697
0.94713571
0.9496836
0.95038087
0.95077804
0.95149447
0.95183253
0.95305569
0.95614906
0.96079808
0.96447914
0.96790761
0.97069698
0.97232151
0.97153583
0.97089831
0.97115049
0.97177523
0.97170983
0.97151948
0.97026612
0.96618818
0.95968266
0.95258284
0.94599561
0.93925934
0.9339389
0.93046259
0.92837091
0.92539209
0.92356197
0.92334557
0.92468801
0.92670141
0.93072754
0.93617225
0.94132209
0.9453619
0.94916849
0.95270447
0.95466808
0.95580684
0.95688701
0.95793053
0.95738232
0.95719341
0.95800132
0.95956322
0.95999675
0.96057316
0.96087837
0.96012849
0.95821512
0.95749525
0.95877979
0.96104031
0.96386825
0.96697463
0.96895487
0.96732503
0.96328973
0.95825332
0.9533524
0.94754506
0.94319752
0.9400931
0.93707121
0.93248581
0.92792559
0.92394597999999994
0.92038098
0.91767528
0.91725218
0.91882634
0.92037294
0.92186794
0.92358673
0.92539065
0.92576074
0.92670533
0.92889526
0.93215512
0.93476199
0.93809559
0.94166652
0.9442708
0.94506369
0.94562799
0.94643484
0.94686837
0.94765075
0.94994619
0.95349909
0.95612156
0.95832922
0.96022046
0.9616483
0.96087551
0.96051796
0.96117192
0.96249632
0.96307162
0.96387734
0.96412718
0.96216507
0.95751862
0.95176063
0.94573165
0.93905053
0.9332651
0.92962838
0.92806773
0.92630542
0.92527915
0.92483936
0.92457586
0.92316794
0.92286584
0.92415449
0.92646346
0.92894221
0.93252571
0.93670109
0.93993609
0.94244605
0.94551894
0.94961922
0.95355551
0.95854269
0.9647327
0.97126091
0.97516558
0.97770231
0.97869893
0.97802448
0.97548586
0.97384998
0.97401777
0.97526303
0.97695166
0.97945909
0.98192574
0.98245754
0.98183143
0.9812906
0.98126311
0.98003171
0.97881268
0.97726435
0.97452403
0.96888476
0.9626453
0.95673696
0.95124152
0.94588063
0.94195592
0.93909972
0.93584855
0.93253038
0.93063576
0.93078072
0.93170698
0.93431212
0.9383722
0.942856
0.94502973
0.94669759
0.94824867
0.94971218
0.95042523
0.95218917
0.95485173
0.95706233
0.95830999
0.95973102
0.96137373
0.96189061
0.96204857
0.9626757
0.96383906
0.96393597
0.96498742
0.96763607
0.97157665
0.97469575
0.97793233
0.98019809
0.97976538
0.97555584
0.96941511
0.96241287
0.95473369
0.9479083
0.94378466
0.94256357
0.94229158
0.9433405
0.94538967
0.94768333
0.94790904
0.94809131
0.94867725
0.9496654
0.95042013
0.95280798
0.9568188
0.96114313
0.96504875
0.96920968
0.97319947
0.97537508
0.97642434
0.9773094
0.97830519
0.97794939
0.97815295
0.97939662
0.98135023
0.98222663
0.98359612
0.98527682
0.98637213
0.98615635
0.98600861
0.98568416
0.98346194
0.9789673
0.97276952
0.96496154
0.95480476
0.9449212
0.93743262
0.93333768
0.93190493
0.93294817
0.93412105
0.93357237
0.93158553
0.93104088
0.93376256
0.93959705
0.94692561
0.95275445
0.95414555
0.9509164
0.94772197
0.94938908
0.95733938
0.96746505
0.973797
0.97001793
0.95575847
0.93873351
0.93232899
0.94451147
0.97173807
0.99923309
1.008565
0.98866074
0.94622158
0.90670318
0.89965613
0.93899246
1.0089428
1.0667891
