0.92657143
0.90185608
0.91602625
0.94962256
0.97766594
0.9858921
0.97436914
0.95512836
0.94256718
0.94800725
0.97308247
1.0112646
1.0516664
1.0875385
1.1168814
1.1419364
1.1648328
1.187683
1.2092258
1.2261666
1.2340803
1.2326685
1.2238707
1.2111145
1.196069
1.1812857
1.1672649
1.1534861
1.1377559
1.1209087
1.1040544
1.0885132
1.0736404
1.0605384
1.0493128
1.0396954
1.0291482
1.0192304
1.0096319
1.0000987
0.98863164
0.97750652
0.96703993
0.95716709
0.94565505
0.93419344
0.92293201
0.91242182
0.90184031
0.89444456
0.89120332
0.89197315
0.89370595
0.89676724
0.90007218
0.90379214
0.90801132
0.91814115
0.93737941
0.96703338
1.0037255
1.045468
1.0864421
1.1209689
1.1436673
1.1564132
1.1615655
1.1625569
1.1604722
1.159029
1.1580352
1.1560479
1.1496659
1.1407437
1.1302034
1.1193826
1.1073152
1.0965525
1.0868475
1.0774862
1.0660258
1.0550089
1.0455967
1.0387371
1.0326214
1.0284326
1.0246302
1.0193653
1.0095073
0.99700795
0.98313185
0.96953452
0.95578655
0.94451161
0.93572591
0.92874423
0.92099529
0.9140139
0.90808053
0.90368901
0.89963728
0.89842838
0.90066086
0.90681157
0.91558762
0.92961607
0.94903694
0.97304941
0.99812693
1.02418
1.0489396
1.0705876
1.086564
1.099516
1.1105811
1.1205577
1.1275691
1.1329873
1.13559
1.1341741
1.1264611
1.1155181
1.1032783
1.091686
1.0801136
1.0710441
1.0639691
1.0576678
1.0490202
1.0396403
1.0298811
1.0203454
1.0096502
0.9999746
0.9911097
0.98238463
0.97134724
0.95982008
0.94839048
0.93789006
0.9273772
0.91932113
0.91391107
0.91067381
0.90707448
0.90431392
0.90221831
0.9009904
0.89954924
0.90077973
0.90566182
0.91463071
0.92574666
0.94024914
0.95688137
0.97400215
0.98835136
1.0011234
1.0121363
1.0216588
1.0284915
1.0355554
1.0433545
1.0516443
1.0576518
1.0624928
1.0652606
1.0652325
1.0601793
1.0528129
1.0442275
1.0354334
1.0251118
1.0158616
1.0079058
1.0010452
0.99294221
0.98553423
0.9789318
0.97308755
0.96586023
0.95891652
0.95196656
0.94460152
0.93474733
0.92446611
0.91433525
0.9049215
0.89492552
0.88661389
0.88033913
0.87622396
0.87262815
0.87169772
0.87387038
0.87938246
0.88655115
0.89728683
0.91159219
0.92934748
0.94872196
0.97160626
0.9976738
1.0258911
1.0528403
1.0785842
1.101287
1.1195015
1.1308712
1.1379219
1.1418105
1.1435858
1.1420031
1.1391171
1.1344885
1.1273503
1.1153365
1.1007408
1.0846105
1.0682057
1.0507786
1.0352428
1.0220922
1.0111936
1.0002099
0.99077422
0.98279005
0.9760941
0.96859699
0.96195547
0.95591558
0.95001015
0.94199422
0.93362109
0.92523881
0.91732909
0.90868646
0.90181424
0.89731921
0.89538018
0.89403278
0.89487234
0.89760098
0.9018029
0.90534096
0.91013695
0.91630354
0.92384738
0.9309233
0.93965488
0.95006226
0.96198202
0.97342548
0.98643062
1.0008162
1.0159878
1.0292323
1.0416904
1.0524038
1.0604418
1.0634364
1.0635834
1.0615642
1.0581511
1.052185
1.0463762
1.0411953
1.0366372
1.0304986
1.0246569
1.0192019
1.0142165
1.0078824
1.0024887
0.9983594
0.99545007
0.99151881
0.98801699
0.98449833
0.98041909
0.97356008
0.96576101
0.95736751
0.94874578
0.93851022
0.92900178
0.9208133
0.9143975
0.90839612
0.90504897
0.90456169
0.9066106
0.9087491
0.9121107
0.91622946
0.92103897
0.9253783
0.93232831
0.94302917
0.9578486
0.97440988
0.99335364
1.0129694
1.0316534
1.0467343
1.0603782
1.0732051
1.0854135
1.0944732
1.1011655
1.1039761
1.1016791
1.0921666
1.0788736
1.064216
1.0505153
1.0372333
1.0267627
1.0184328
1.0109113
1.0011007
0.99085628
0.9809411
0.97233156
0.96376698
0.95729015
0.95231747
0.94768646
0.94046827
0.93222686
0.92353036
0.91537468
0.90703059
0.90120147
0.89822553
0.89771819
0.89718311
0.89800816
0.90025066
0.90437199
0.90944578
0.91835851
0.93183572
0.94978738
0.96952838
0.99159223
1.0142529
1.0357175
1.0528375
1.0671781
1.079006
1.0889044
1.0956972
1.1020744
1.1082029
1.1135575
1.1153673
1.1149914
1.1121868
1.1071051
1.0984222
1.089207
1.0804299
1.072389
1.0627613
1.0529582
1.042574
1.0315679
1.0186426
1.007053
0.99818664
0.99260808
0.98788137
0.98447409
0.98064637
0.97491346
0.96500246
0.95372568
0.94302469
0.93476769
0.92824324
0.92535816
0.92527911
0.92665614
0.92665881
0.92706572
0.92860589
0.93216401
0.93651843
0.94365524
0.95299392
0.9635745
0.97292455
0.9831454
0.99485431
1.0085907
1.0226167
1.0384565
1.0548513
1.0700268
1.0805327
1.0876768
1.0914993
1.0924569
1.0892977
1.0848645
1.0797586
1.0742036
1.0663279
1.0584895
1.0510919
1.0442911
1.0360468
1.0283263
1.0211501
1.0145122
1.0066117
0.99988486
0.99476852
0.99115779
0.98647327
0.98167962
0.9758607
0.96834105
0.95728118
0.94548437
0.93444879
0.92551813
0.91769787
0.91309676
0.91139751
0.91184791
0.91199022
0.91357528
0.91692568
0.92240678
0.92849542
0.93718739
0.94828503
0.96129003
0.97397125
0.98816024
1.0038028
1.0205739
1.0360573
1.0514534
1.065771
1.0779607
1.0855514
1.0906295
1.0937588
1.0955112
1.094418
1.0927184
1.0903495
1.0869169
1.0801578
1.072188
1.0634999
1.0546035
1.0440134
1.0341996
1.0255334
1.0180772
1.0098263
1.0027638
0.99687272
0.99177332
0.98495496
0.97768249
0.96954117
0.96033877
0.9485471
0.93690404
0.92657739
0.91840804
0.91093257
0.90587598
0.902807
0.90111358
0.8986842
0.89764347
0.89864138
0.90222814
0.90689676
0.91452517
0.92471035
0.93675658
0.94829735
0.96113364
0.97522909
0.99030545
1.0040024
1.0176679
1.0305606
1.0420041
1.0499448
1.0567924
1.0631035
1.0690012
1.0721644
1.0738111
1.0730294
1.0691117
1.060209
1.0494148
1.0384156
1.0286473
1.0189128
1.0112156
1.0049393
0.99908381
0.99098807
0.98264491
0.97472863
0.96791602
0.96066233
0.95472654
0.9495382
0.94418752
0.93619867
0.92748946
0.91892026
0.91163708
0.90497143
0.90147229
0.90123428
0.90353138
0.90550102
0.90802972
0.91067441
0.91348872
0.91536806
0.91917568
0.92578226
0.93540793
0.9459107
0.95834525
0.97161987
0.98465572
0.99515902999999994
1.0052006
1.0153067
1.0258942
1.0353279
1.0453306
1.0551839
1.063762
1.0681815
1.0700095
1.0694054
1.0667547
1.0605049
1.0532857
1.0455439
1.0373144
1.0263519
1.0148253
1.0032046
0.99203286
0.97983789
0.96924805
0.96068271
0.95394532
0.9463652
0.93909008
0.93149826
0.92313341
0.91202899
0.90062535
0.88982349
0.88033495
0.8706435
0.8627636
0.85662356
0.85192395
0.84662112
0.84284664
0.84120592
0.84230778
0.8448987
0.85146716
0.86251985
0.87837513
0.89756638
0.92242369
0.95308497
0.988958
1.0268544
1.0666538
1.1056679
1.1409059
1.168005
1.1874258
1.1988132
1.2027564
1.198844
1.191001
1.1811728
1.1707479
1.1586718
1.1473479
1.1369196
1.1271899
1.116033
1.1054192
1.0956164
1.0868046
1.0771485
1.0686699
1.0613653
1.0548467
1.0465958
1.0379454
1.028573
1.0182225
1.0050181
0.99113874
0.97726572
0.96401233
0.95010038
0.93784324
0.92775603
0.92007966
0.91307823
0.90853541
0.90630473
0.90589772
0.9049066
0.90488062
0.90586302
0.90825959
0.91106005
0.91743437
0.9280839
0.94273714
0.95831453
0.9751949
0.99145139
1.0055487
1.015179
1.0233226
1.0315221
1.0410719
1.0505702
1.0616793
1.0730127
1.0826112
1.0868082
1.0871506
1.0841433
1.0788285
1.0703145
1.0618225
1.0540358
1.0470147
1.0385108
1.0305384
1.0232386
1.0166256
1.0086231
1.0010446
0.99369621
0.9862437
0.97661567
0.9669208
0.95768722
0.94933299
0.94026312
0.93244412
0.92588739
0.92041063
0.9141272
0.90909273
0.90578278
0.90457674
0.90398347
0.90608618
0.91106545
0.91895842
0.92813397
0.9408983
0.95769974
0.97863878
1.0015954
1.0277183
1.0556007
1.0832054
1.1064852
1.1256155
1.1393063
1.1468524
1.1464252
1.1411052
1.132455
1.1220468
1.1092975
1.0974422
1.0871784
1.0784871
1.0689041
1.0599986
1.0514503
1.0430074
1.0326696
1.0227811
1.0138084
1.0059137
0.99702299
0.98883397
0.98105175
0.97325871
0.96331759
0.95331486
0.94384426
0.93551962
0.92703108
0.92066606
0.91658274
0.91443516
0.91181312
0.91020318
0.90965787
0.91058157
0.91196985
0.91687347
0.92626751
0.94037628
0.95673676
0.97613657
0.99688717
1.0171362
1.0335752
1.0477625
1.059828
1.0701599
1.0773268
1.0838638
1.0898962
1.0950863
1.0970403
1.0976398
1.0969544
1.0950749
1.0901924
1.0846845
1.0788913
1.0729419
1.0649587
1.0572839
1.0503575
1.044414
1.0375591
1.0318168
1.0271759
1.023383
1.0182149
1.013418
1.0088945
1.0043357
0.99749524
0.99004843
0.9821188
0.97404386
0.96468891
0.95690636
0.95169687
0.94950704
0.94840204
0.94963682
0.952434
0.95602938
0.95836909
0.96174341
0.96690049
0.9744066
0.98265462
0.99336502
1.0058027
1.0188813
1.0298568
1.0403775
1.0504621
1.0601397
1.0674183
1.0742678
1.0803754
1.0851624
1.0861377
1.0853848
1.0832646
1.0801597
1.0743979
1.0684453
1.0625579
1.0566568
1.0485319
1.0403144
1.0322794
1.0246087
1.0153709
1.0066439
0.9982733
0.98969162
0.978275
0.96567293
0.9521353
0.93837376
0.9236959
0.91148858
0.90296966
0.89845202
0.89549713
0.89490307
0.89558244
0.89688918
0.897357
0.90031936
0.90770133
0.92091002
0.93844292
0.96122435
0.98705897
1.0130645
1.0348671
1.0530152
1.0673178
1.0784177
1.0856026
1.092079
1.0986164
1.1053056
1.1099975
1.1144572
1.1184333
1.1215125
1.1212915
1.1195134
1.1159716
1.1104594
1.1010105
1.0902356
1.0789942
1.0679876
1.0556056
1.0442484
1.0341109
1.0250674
1.0148486
1.0054476
0.99702607
0.98955027
0.98085607
0.9726783
0.96494655
0.95755968
0.94868135
0.94063082
0.9340804
0.92948535
0.92513402
0.92282486
0.92226377
0.92289571
0.92238759
0.92269893
0.92424504
0.92757942
0.93148833
0.93864599
0.94942429
0.9636647
0.97901438
0.9969011
1.0165396
1.0369097
1.0552039
1.07295
1.0900018
1.106458
1.1207822
1.1354867
1.1505176
1.1648382
1.1746829
1.1802034
1.1799921
1.1736168
1.16007
1.143797
1.1276995
1.1139403
1.1012989
1.091294
1.0825609
1.0735149
1.0612709
1.0482907
1.0360008
1.0257465
1.0160928
1.0085521
1.0018881
0.99453058
0.98357407
0.97129202
0.95921348
0.94915331
0.9406017
0.93595965
0.93474362
0.93567554
0.93562269
0.93594
0.93690666
0.93920724
0.94179569
0.94736024
0.9562931
0.96856765
0.9821631
0.99898249
1.0185622
1.0397214
1.0588127
1.076096
1.090067
1.1000696
1.1048769
1.1086011
1.1134721
1.1207849
1.1283746
1.1368816
1.1440552
1.1477301
1.144918
1.1384448
1.1302415
1.1222659
1.1136817
1.1065722
1.0999521
1.0922947
1.0805565
1.0669011
1.052608
1.039263
1.0261594
1.015718
1.007501
1.0002895
0.99097413
0.98098838
0.97082577
0.96151351
0.952388
0.94620891
0.94314776
0.94243951
0.94107445
0.93999295
0.93897793
0.93861071
0.93848229
0.94236485
0.95168055
0.96663753
0.98428845
1.0044744
1.024487
1.0417732
1.0530307
1.0603512
1.0649463
1.0683954
1.0702007
1.0732733
1.0775609
1.0822425
1.0844457
1.0858309
1.0864288
1.0863877
1.0838353
1.0809158
1.0774127
1.0727967
1.0646416
1.055114
1.0447739
1.0342221
1.0219941
1.0105172
0.99999206
0.99026483
0.97920353
0.96879951
0.95930846
0.95086034
0.94159578
0.93338511
0.92616988
0.91975839
0.9122677
0.90583577
0.90095681
0.89799881
0.89540758
0.89525235
0.89763516
0.90246877
0.90790531
0.91599856
0.92680773
0.94005331
0.95341035
0.96826772
0.98397473
0.99983165
1.0135658
1.0271321
1.0406024
1.0537896
1.0643768
1.0738985
1.081768
1.0873518
1.0883819
1.0872034
1.0844726
1.080775
1.0745304
1.0680612
1.0614027
1.0542506
1.0443179
1.0337459
1.0230911
1.0129907
1.0020886
0.99286081
0.98547721
0.97945807
0.97201831
0.96428077
0.95586549
0.9467889
0.93575595
0.92570957
0.91786066
0.91290239
0.90906695
0.90772404
0.90816252
0.90961722
0.90997485
0.91150082
0.91512728
0.92171926
0.92999442
0.94183867
0.95661069
0.97311659
0.9883366
1.0034725
1.0181992
1.032368
1.0441211
1.0555625
1.0666603
1.0771326
1.0848166
1.0917003
1.0977563
1.1026688
1.1039897
1.1033946
1.1007448
1.0961427
1.088155
1.0798876
1.0724334
1.0662101
1.058837
1.0514695
1.0431962
1.0333759
1.0202085
1.0067662
0.99465125
0.98500892
0.97617637
0.96941655
0.96355304
0.95728833
0.94812507
0.93840597
0.9295227
0.9229586
0.91790866
0.91647948
0.91810843
0.92159449
0.92399942
0.92680177
0.93037913
0.9355058
0.94126134
0.9502589
0.96258921
0.97760749
0.99252772
1.0085146
1.0249842
1.0414889
1.0559276
1.0702008
1.0839558
1.0963762
1.1045793
1.1098502
1.1118068
1.1104703
1.1045178
1.0972739
1.0901644
1.0841334
1.0774945
1.0720108
1.0669401
1.0612313
1.0521391
1.0416614
1.030565
1.0198842
1.0086803
0.99965251
0.99299587
0.98811389
0.98207678
0.9758301
0.96879658
0.96072719
0.95002308
0.9393402
0.92980471
0.92242044
0.91613848
0.91325278
0.91367353
0.91659013
0.92010586
0.92392812
0.92671597000000006
0.92829167
0.92966141
0.93498652
0.94656547
0.96466022
0.98622004
1.0081104
1.0253808
1.0353558
1.0387458
1.041591
1.0485997
1.0613376
1.0760801
1.0876614
1.089668
1.0804279
1.0646657
1.0537368
1.0560196
1.0721472
1.0922013
1.1019072
1.0879264
1.048589
0.99749096
0.96077264
0.96076942
1.0027309
1.0661962
1.1111249
