0.74457455
0.77645698
0.8029953
0.79568342
0.75906212
0.71980772
0.70219052
0.71155501
0.73326453
0.74817628
0.75046189
0.74751002
0.74943405
0.76186441
0.78085582
0.79725504
0.8066736
0.81074222
0.81253151
0.81398398
0.81494781
0.81357497
0.80989032
0.80765364
0.8098388
0.81601094
0.82471941
0.83312886
0.83843905
0.84284668
0.84728636
0.84976351
0.85055482
0.84788765
0.83954673
0.82838923
0.81861469
0.81228697
0.81029873
0.81100547
0.80908775
0.80031353
0.78577914
0.76919427
0.75598763
0.75365505
0.76385518
0.78090268
0.79955442
0.81295337
0.81652453
0.81361369
0.80949845
0.80689138
0.80694671
0.80788664
0.80576481
0.79995757
0.79462615
0.79353455
0.79823688
0.80919553
0.82189946
0.82963644
0.83163807
0.82823403
0.82006388
0.81164532
0.80515141
0.79964971
0.79586588
0.79444779
0.79427492
0.79508854
0.79715871
0.79826552
0.79591751
0.7905997
0.78226227
0.77078736
0.76004214
0.751759
0.74467749
0.74035341
0.73856004
0.7380873
0.74127486
0.74993061
0.76263678
0.77735982
0.79139581
0.80079139
0.80420271
0.80470909
0.80496164
0.80617687
0.81060284
0.81696441
0.82151767
0.82540602
0.82886252
0.83094882
0.83352425
0.83694568
0.8393018
0.84057647
0.84137173
0.84059815
0.83777516
0.83388219
0.82834378
0.82066908
0.81353725
0.80793494
0.80265447
0.79925108
0.79677951
0.79242093
0.7871061
0.7814697
0.77509201
0.76981863
0.76702405
0.76567075
0.76530579
0.76646915
0.76837262
0.77078188
0.77587769
0.78363217
0.79189246
0.8011254
0.80976599
0.81485927
0.81820293
0.82057183
0.8209666
0.82070873
0.82018567
0.81787156
0.81423505
0.81100303
0.80814742
0.80555807
0.80435626
0.80321362
0.7998444
0.79557124
0.79069383
0.7839884
0.7783423
0.7741743
0.76961721
0.7656111
0.76268416000000006
0.76033808
0.76041052
0.76487639
0.77290185
0.78291471
0.79383665
0.80290301
0.80800804
0.81116714
0.81379239
0.8158371
0.82006671
0.82610056
0.8309445
0.83494899
0.83782748
0.83836044
0.83808606
0.83829622
0.83790922
0.83643033
0.83434443
0.83069558
0.82510135
0.81998664
0.81597037
0.81186598
0.80920897
0.80729323
0.80361349
0.79987958
0.79679785
0.79353409
0.79144718
0.7908122
0.78960649
0.78713698
0.78384996
0.77922808
0.77377075
0.76994131
0.76806961
0.76703115
0.7680049
0.77027179
0.77150515
0.77394689
0.77807875
0.78250706
0.78850632
0.79606189
0.80324091
0.81015477
0.81719595
0.82263223
0.82519913
0.82527646
0.82204503
0.81522214
0.80804448
0.80197919
0.79600838
0.7918907
0.78866059
0.78340272
0.77733288
0.77131734
0.76489362
0.75963673
0.75634283
0.75330928
0.74982531
0.74703414
0.74550764
0.74644296
0.7526382
0.76327212
0.77414786
0.78355962
0.7893699
0.79041381
0.79177685
0.79728131
0.80665664
0.81873767
0.82969455
0.83467133
0.83360768
0.83064101
0.82943713
0.83240805
0.84052516
0.850099
0.85587426
0.85717427
0.85380983
0.8450424
0.83461257
0.82379889
0.81165885
0.80023853
0.79100439
0.78361164
0.77915706
0.77865263
0.7809845
0.78542975
0.79241801
0.80002588
0.80526356
0.80777139
0.80650526
0.80049693
0.79381577
0.78897958
0.78584111
0.78611164
0.7891661
0.79250393
0.79662546
0.80265891
0.81004625
0.81872213
0.82868452
0.83747827
0.84283475
0.84567041
0.84603363
0.84328967
0.84026798
0.83749404
0.8331875
0.82937339
0.82644897
0.82291105
0.81964264
0.81680886
0.81260797
0.80683822
0.80039808
0.79269515
0.783773
0.77604527
0.77051059
0.76728066
0.76869602
0.77376894
0.777993
0.78056238
0.78014192
0.77631164
0.77368016
0.77595145
0.78269061
0.79212461
0.80103802
0.80557014
0.80584336
0.80628182
0.80988426
0.81687649
0.82684123
0.83570153
0.83869288
0.83781955
0.8357701
0.83395199
0.83556782
0.83994905
0.84292244
0.84282176
0.83957294
0.8330954
0.82529122
0.81881544
0.81331655
0.80727054
0.80124966
0.79467756
0.78655815
0.77971065
0.77476239
0.76947421
0.76473121
0.76020726
0.75511044
0.75259706
0.75561255
0.7638392
0.77606151
0.78993409
0.80111483000000006
0.80726957
0.81045723
0.81247063
0.81406483
0.81763228
0.82214804
0.82392908
0.82437154
0.8241739
0.82312463
0.82405083
0.82775614
0.83177051
0.83484779
0.83640243
0.83506724
0.83145314
0.82843502
0.82668095
0.82524455
0.82488333
0.82425091
0.82098173
0.81777985
0.81649081
0.81714196
0.8219166
0.83011601
0.8379454
0.84347278
0.84566117
0.84343692
0.83847448
0.83436807
0.83276894
0.83421445
0.83986471
0.84774946
0.85411733
0.85886035
0.8611333
0.85958678
0.85751877
0.85665398
0.85627386
0.85738294
0.85974728
0.86111612
0.86107834
0.86032952
0.85795151
0.85336955
0.84777924
0.84058431
0.83062573
0.8201731
0.80997019
0.79867708
0.78888777
0.78081849
0.77269
0.76589909
0.76115496
0.7574338
0.75548619
0.75583118
0.75653014
0.75620021
0.75546115
0.75422026
0.75311316
0.7557421
0.76302268
0.77256493
0.78411889
0.79480639
0.80069868
0.80299897
0.80296869
0.80050722
0.79750949
0.79521805
0.79302093
0.79200013
0.79460064
0.80076915
0.80898409
0.81862417
0.82680279
0.83027915
0.83087722
0.82978735
0.82638817
0.82306314
0.81979811
0.81458787
0.80833725
0.80198486
0.79477951
0.78714455
0.78018746
0.77377952
0.76882851
0.76830668
0.77261317
0.77957402
0.78829081
0.79583149
0.79852
0.79866199
0.79812775
0.79729634
0.79851104
0.80186069
0.80489261
0.80721388
0.80952435
0.8114012
0.81322378
0.81638855
0.81986393
0.82177077
0.82292158
0.8225744
0.81866619
0.81340563
0.80737501
0.79954966
0.79260588
0.78785763
0.78430122
0.78247001
0.78213202
0.78086904
0.77760823
0.77332666
0.76834974
0.76368255
0.76256899
0.76550315
0.77018423
0.77638052
0.78174723
0.78296801
0.78208265
0.78097027
0.78026104
0.78255883
0.78864833
0.79627269
0.80416719
0.81208328
0.81872989
0.82390343
0.82962307
0.8358676
0.84115672
0.84637437
0.85016657
0.84926055
0.84528482
0.83908657
0.83090245
0.82433644
0.82139741
0.82065099
0.82090901
0.82072504
0.81757405
0.81119169
0.80427266
0.7981833
0.79309593
0.79056774
0.78964155
0.78782808
0.78698396
0.78777412
0.78917947
0.79281129
0.79817893
0.80257752
0.80569244
0.8078476
0.80844622
0.80837725
0.80920428
0.80999372
0.80932136
0.8081671
0.80654004
0.80421085
0.80472874
0.80897001
0.81431645
0.82044225
0.82483374
0.82413822
0.81952829
0.81333062
0.80654351
0.80090117
0.79743524
0.79424309
0.78960335
0.78445651
0.77880221
0.77212257
0.76673647
0.762626
0.75725812
0.75231642
0.74800682
0.74336581
0.74091157
0.74225184
0.74653287
0.75391397
0.76405316
0.77420889
0.78234093
0.78847165
0.79168474
0.79150141
0.7906944
0.790365
0.78966466
0.79107287
0.79474467
0.79871863
0.8044215
0.81181358
0.81873782
0.82508989
0.83078139
0.83437999
0.83617591
0.83790268
0.83924667
0.83929433
0.83927017
0.83920817
0.83876098
0.84115549
0.84678576
0.85213493
0.85568099
0.85463396
0.84678639
0.83533382
0.82460163
0.81630803
0.81115997
0.8086268
0.80657769
0.80505247
0.80739348
0.81462509
0.82429256
0.83390559
0.83867978
0.83448774
0.82526803
0.81591826
0.8094487
0.80886581
0.81273175
0.81609847
0.81678613
0.81518916
0.81179895
0.80819746
0.80630957
0.80481425
0.80141489
0.7970604
0.79204187
0.78588338
0.78186418
0.78032081
0.77853852
0.77652976
0.77315349
0.76653839
0.75836397
0.7508877
0.7443396
0.73922399
0.73639881
0.73496953
0.73461377
0.73755626
0.74371602
0.7505468
0.75765728
0.76287817
0.76380985
0.76375962
0.76543224
0.76905837
0.77545878
0.7831226
0.78843854
0.79057624
0.79114762
0.7909175
0.79061382
0.79167402
0.7927795
0.79168713
0.78982944
0.78766029
0.78384549
0.78078931
0.77841597
0.77465777
0.77067312
0.76730178
0.76385278
0.76121539
0.76002872
0.7584152
0.75488663
0.75018004
0.74461467
0.73915311
0.73754598
0.74062939
0.74559109
0.75200882
0.75787102
0.76103355
0.76469025
0.77137484
0.78028418
0.7903557
0.79896826
0.80247402
0.8009836
0.79840564
0.79770455
0.8002399
0.80686371
0.81474038
0.81985622
0.82323973
0.82592574
0.82757322
0.83082639
0.83534198
0.83807484
0.83871842
0.83754491
0.83411776
0.83007382
0.82783851
0.827553
0.82892024
0.83295174
0.83863324
0.84388605
0.84928556
0.85329471
0.85208003
0.84607549
0.83528009
0.82012915
0.80539779
0.79462547
0.78745138
0.78300517
0.78015208
0.77795948
0.77900815
0.7880261
0.80504231
0.82463398
0.84072621
0.84703865
0.84166162
0.8326134
0.82772521
0.82893334
0.83487326
0.83877935
0.83385851
0.82166387
0.80896717
0.80115739
0.80010477
0.80287477
0.80238819
0.79437046
0.78216667
0.77090891
0.76371188
0.76287019
0.76467587
0.76276328
0.75733988
0.75102839
0.74703661
0.75005371
0.76063434
0.77379982
0.7843867
0.7892817
0.787108
0.78038803
0.77509277
0.77431314
0.77728878
0.78313706
0.78791983
0.78697863
0.78243427
0.77654119
0.77016528
0.7660576
0.76457138
0.76373067
0.76400759
0.76678006
0.77116101
0.77558999
0.77886847
0.77835259
0.77285139
0.76602736
0.76070597
0.75699476
0.75654392
0.75765463
0.75700843
0.7560141
0.75631202
0.75789429
0.76156604
0.76642569
0.76925191
0.76886483
0.76696705
0.76505971
0.76491174
0.76946362
0.77825542
0.78814467
0.79859822
0.80749432
0.81170037
0.81280319
0.8117879
0.80849214
0.80534048
0.8038548
0.80303034
0.80269043
0.80324706
0.8036209
0.80339316
0.80402114
0.80474705
0.80331297
0.8001174
0.79434629
0.78434179
0.77354634
0.76413637
0.75638455
0.75248147
0.752701
0.75485623
0.75835524
0.76311513
0.76765599
0.77132707
0.77479279
0.77697787
0.77670026
0.77592334
0.7757841
0.77636943
0.78087156
0.78908945
0.79724017
0.80393086
0.8070862
0.80486091
0.79984302
0.79553148
0.79286113
0.79189858
0.79200802
0.79041933
0.78552591
0.7796817
0.77448613
0.76994507
0.76787488
0.76689973
0.76349944
0.75866355
0.75330994
0.74758839
0.74378505
0.74232494
0.7404502
0.73652186
0.73100248
0.72516956
0.72254813
0.72803403
0.74172038
0.75868204
0.77413337
0.78242245
0.78010018
0.77268784
0.76634472
0.76415344
0.76802963
0.77501835
0.77919468
0.77845977
0.77427549
0.76843321
0.76326573
0.76090182
0.760274
0.75964605
0.76045066
0.76264844
0.7638984
0.76468189
0.76356229
0.75849642
0.75254482
0.74854369
0.74675483
0.74764744
0.75005993
0.75091344
0.74961641
0.74879084
0.75033266
0.7552262
0.76459004
0.77577215
0.78404905
0.78878229
0.78945194
0.78560216
0.78122105
0.77828558
0.77583181
0.77435675
0.77376651
0.77310407
0.77401509
0.77925162
0.7888598
0.80119525
0.814587
0.82506045
0.82906103
0.82856376
0.8264033
0.82445707
0.82744132
0.83535151
0.84348948
0.84863133
0.84768283
0.83852133
0.82392706
0.80887361
0.79618044
0.78717094
0.78222007
0.77859118
0.77337094
0.76773982
0.76262766
0.75789733
0.75658173
0.7588398
0.7623376
0.76783255
0.77498457
0.78172765
0.78792475
0.79312663
0.79530836
0.79430672
0.79214436
0.7899528
0.7889801
0.79198131
0.79857531
0.80583554
0.81359759
0.82000522
0.82214064
0.82210772
0.82110568
0.81863862
0.81649618
0.81531697
0.81351801
0.81101759
0.80864342
0.80548765
0.80084946
0.79587501
0.79013378
0.78277336
0.77649287
0.77246897
0.76944961
0.76942528
0.77171167
0.7735941
0.77550388
0.77762727
0.77902547
0.78094367
0.78485556
0.7901234
0.79633714
0.80402919
0.81164433
0.81712327
0.82119519
0.82325834
0.82163941
0.81879999
0.81557888
0.8111267
0.80803256
0.80730039
0.80754198
0.80921007
0.812559
0.81617374
0.81993419
0.8246234
0.82849681
0.82903838
0.82611065
0.81897313
0.80735475
0.79552123
0.78574425
0.7769867
0.77031154
0.76490478
0.75940361
0.75641906
0.75827783
0.76387621000000006
0.7709523
0.77638294
0.7764273
0.77119559
0.76632928
0.76717932
0.77636769
0.7950739
0.81829476
0.83704475
0.84775527
0.84856398
0.83997719
0.82813982
0.81851278
0.81282164
0.81195162
0.81482769
0.81748011
0.81705678
0.81355755
0.80654925
0.79607214
0.7851555
0.77483172
0.76418497
0.75586738
0.75051882
0.74670961
0.74589057
0.74783388
0.7502129
0.75291394
0.75618384
0.75897652
0.76161883
0.76554091
0.77011912
0.7743412
0.7794268
0.78508743
0.79009159
0.79687919
0.8057873
0.81448755
0.8238456
0.83253072
0.83749076
0.83910774
0.83825905
0.83468564
0.82988642
0.82588231
0.82238581
0.81899513
0.81696373
0.8156296
0.81345344
0.8119787
0.81112829
0.80890085
0.80738381
0.80681219
0.80568212
0.80533828
0.80632364
0.80744147
0.80931575
0.81292642
0.81742795
0.82248049
0.82897736
0.83581586
0.84126168
0.84603001
0.84928555
0.84904826
0.84740301
0.84486666
0.84031744
0.83587726
0.8321621
0.82794411
0.82423635
0.82179885
0.81948443
0.81719798
0.81589741
0.81497362
0.81397194
0.81436521
0.81523101
0.81388535
0.81099926
0.80641033
0.7995366
0.79447108
0.79310719
0.79356405
0.79442268
0.79296753
0.78597366
0.7744462
0.76245738
0.75275337
0.74685919
0.74568349
0.74663007
0.74632242
0.74567048
0.74508372
0.74343542
0.74312751
0.74372866
0.74293581
0.74194563
0.74161898
0.74118853
0.74141808
0.74293471
0.74468885
0.74700415
0.75218185
0.76060059
0.77124999
0.78431611
0.7972779
0.80606014
0.81113745
0.81229772
0.80857555
0.80293263
0.79726333
0.79153923
0.78744194
0.78575053
0.78455687
0.78241413
0.77912628
0.7736313
0.76596735
0.75925659
0.75504975
0.75295646
0.75440364
0.75799526
0.76020963
0.76143555
0.7615923
0.75996551
0.75862363
0.75875724
0.75960777
0.76049347
0.76010744
0.75790526
0.75672435
0.76041279
0.76916685
0.77906815
0.78471339
0.78198875
0.77332889
0.76865327
0.77448839
0.78836893
0.80117214
0.80240268
0.790739
0.7777603
0.77564917
0.78357558
0.78635357
0.76627783
0.72222703
0.6797461
0.67560135
0.72393909
0.79441843
