0.91803796
0.92051026
0.96149076
1.0121078
1.0448157
1.0494308
1.0337487
1.0148607
1.0079659
1.0185033
1.0397968
1.0580971
1.0628972
1.0518033
1.0298839
1.0043764
0.98302526
0.96920331
0.96198686
0.95744003
0.95429714
0.95258625
0.95294748
0.95515891
0.95968672
0.96570142
0.97135894
0.97520426
0.97766469
0.97930123
0.97973334
0.97920875
0.97870631
0.97913221
0.97961706
0.98228419
0.98744184
0.99428248
1.0000777
1.0058884
1.0111509
1.0149663
1.0162739
1.0168463
1.0168844
1.0155179
1.0126144
1.0095796
1.0066879
1.0030463
0.99991056
0.99883884
1.0002017
1.0021963
1.0056628
1.0101944
1.0146844
1.0162858
1.0163435
1.0145989
1.0105658
1.0033032
0.99483873
0.98589962
0.97671216
0.96810441
0.96248332
0.96061661
0.96159678
0.96526537
0.97139451
0.97856019
0.98414158
0.98851182
0.99212415
0.99520876
0.9964441
0.99748453
0.99787222
0.99633543
0.99079398
0.98332594
0.97538204
0.96858125
0.96475752
0.96706004
0.9756084
0.9875436
0.99955468
1.0085074
1.0101959
1.0001246
0.9783843
0.94799843
0.91407239
0.8815612
0.85813849
0.84695763
0.84578093
0.84652104
0.84334638
0.83110962
0.80980159
0.78516623
0.76857588
0.76752433
0.78150732999999994
0.80255972
0.81946475
0.82162976
0.80517406
0.77835741
0.75667153
0.7542016
0.77531548
0.81573105
0.86123077
0.89533643
0.90616117
0.89705982
0.87935652
0.86755724
0.87142888
0.89465881
0.93022216
0.96562579
0.99012476
1.0002049
0.99756667
0.98690396
0.97468094
0.96529907
0.95905767
0.95323854
0.94759745
0.94281156
0.94025995
0.94001008
0.9440776
0.95148713
0.95956863
0.9643676
0.96627111
0.96569803
0.96354795
0.96075377
0.9595262
0.95949862
0.95815742
0.95376572
0.94672583
0.93825477
0.92993711
0.92583423
0.92896913
0.93896527
0.95036697
0.95801466
0.9549675
0.9359225
0.89876239
0.85023414
0.79997812
0.75860459
0.73393582
0.73022984
0.74265675
0.75925976
0.76704687
0.7584574
0.73347568
0.7009234
0.67834651
0.68350591
0.7253325
0.79813682
0.88661966
0.9682745
1.0228098
1.0387218
1.0225727
0.98982096
0.95857546
0.94099452
0.94222586
0.95602578
0.97035419999999994
0.9749215
0.96723519
0.94996876
0.9282462
0.90827577
0.89379046
0.88392247
0.87448115
0.86466324
0.85558414
0.84973407
0.84810249
0.85398286
0.86682283
0.88362562
0.89951627
0.91347688
0.92438494
0.93166501
0.93526725
0.93756808
0.93973687
0.94190273
0.9449896
0.95088616
0.96009747
0.97102504
0.98318743
0.99569365
1.0068363
1.0133429
1.0160888
1.0156048
1.0128342
1.007811
1.0045304
1.0045253
1.0074526
1.0111637
1.0152932
1.017963
1.0172284
1.0132581
1.0089512
1.0062182
1.0048306
1.0051195
1.0069565
1.0092707
1.0100418
1.0110606
1.0138336
1.0186871
1.0225841
1.0250492
1.0236249
1.0167128
1.0043045
0.99144533
0.98226086
0.97872745
0.98054589
0.98674664
0.99401533
0.99871108
1.0007985
1.0028734
1.00695
1.0121029
1.0178802
1.0218415
1.0212299
1.0136708
1.0037004
0.9962657
0.99554288
1.0019974
1.0161017
1.0337928
1.0495412
1.0592494
1.0636564
1.0640822
1.0613195
1.0564142
1.0500319
1.0408012
1.0262763
1.0078752
0.98868268
0.97184055
0.95815235
0.95029324
0.94785024
0.94870901
0.94913206
0.95004765
0.95149825
0.95346228
0.95540896
0.95892648
0.96353046
0.96759388
0.97059553
0.97412496
0.97880118
0.98365243
0.9891426
0.99556526
1.002011
1.0059497
1.0083633
1.0096878
1.0098484
1.0066254
1.00188
0.99571171
0.9882868
0.97972015
0.97375646
0.97215712
0.97475526
0.98035697
0.9884769
0.99666592
1.0016257
1.0027566
1.0014051
0.99860663
0.9938732
0.98892739
0.98460384
0.98097183
0.9765996
0.97432882
0.9757587
0.98162329
0.99048397
1.0031056
1.0175908
1.0309758
1.0406362
1.047122
1.0503074
1.0493411
1.0445965
1.0376446
1.0290663
1.0183139
1.0076818
0.99968454
0.9957277
0.99450399
0.99705166
1.0021778
1.0077148
1.0101953
1.0107582
1.0096161
1.0070166
1.0029908
1.0000252
0.99855757
0.99749372
0.99615622
0.99532326
0.99464685
0.9926757
0.9901785
0.9885165
0.98827203
0.98831506
0.9904222
0.99527253
1.0026188
1.0097826
1.018059
1.026642
1.0342319
1.0389017
1.0422957
1.0446977
1.0457392
1.0454576
1.0455342
1.0456979
1.0439392
1.0395535
1.0327454
1.023471
1.0112864
0.99922772
0.99013134
0.98566307
0.98458354
0.9878098
0.99359233
0.9993819
1.0021312
1.0029598
1.0022237
1.0001298
0.99699959
0.99500614
0.9945515
0.99479666
0.9960908
0.99990719
1.0064693
1.0141446
1.023013
1.0326151
1.0415296
1.0467063
1.049034
1.0486202
1.0452481
1.0370522
1.0259547
1.0119553
0.99473895
0.97422144
0.9534646
0.93422029
0.91712412
0.90299102
0.89303215
0.88625158
0.87981564
0.87279766
0.86511236
0.85681634
0.8474917
0.84032754
0.83766409
0.8405836
0.84711158
0.8581163
0.87180956
0.88589355
0.89793467
0.90937529
0.92062905
0.93141552
0.94162545
0.952725
0.9646949
0.97636077
0.98815494
1.0009124
1.0135815
1.022359
1.0254038
1.0205807
1.0065294
0.98236835
0.95348529
0.92492663
0.90087947
0.88256834
0.8720594
0.86759785
0.86589478
0.86418807
0.86319887
0.86348004
0.86494679
0.8681253
0.8738515
0.88132812
0.88835955
0.89537192
0.90348364
0.91332577
0.92341371
0.93456511
0.94582615
0.955521
0.96087386
0.96364736
0.96484137
0.96535056
0.96553966
0.96783235
0.97244658
0.97802748
0.98361683
0.98961211
0.99509731
0.99770237
0.99696844
0.99294897
0.98530082
0.97281844
0.95824818
0.94414408
0.93268124
0.92379033
0.920433
0.92274115
0.92944392
0.93791011
0.94809785
0.95860711
0.96754135
0.973698
0.97810176
0.98095297
0.98157033
0.98083846
0.98042119
0.98087931
0.98091635
0.98146467
0.98285674
0.98469529
0.98472383
0.98455119
0.98432942
0.98372049
0.98120436
0.97876077
0.97680361
0.9751917
0.97382659
0.97464127
0.97756492
0.98063945
0.98239162
0.98224398
0.97886946
0.97042238
0.95853045
0.94577894
0.93440709
0.92466897
0.91924902
0.91863426
0.9218986
0.92611156
0.93205744
0.93913278
0.94654505
0.95334837
0.9611795
0.96992164
0.9782236
0.98535235
0.99209453
0.99821484
1.0023661
1.0052203
1.0077356
1.0097523
1.0091763
1.0067536
1.0024952
0.99629262
0.98680169
0.97743906
0.97013237
0.96623217
0.96563026
0.97002254
0.97806601
0.98642861
0.99173834
0.99301367
0.9893636
0.98055102
0.96942005
0.9601998
0.95563974
0.95543667
0.95987381
0.96715643
0.97407496
0.97598843
0.97327043
0.9666187
0.95778489
0.94814158
0.94217166
0.94161662
0.94597027
0.95324197
0.96271793
0.97188049
0.97740226
0.97796031
0.9745147
0.96805448
0.95900132
0.95048035
0.94530818
0.94467911
0.9467635
0.95195532
0.95847681
0.96363429
0.96349601
0.95899022
0.95068517
0.93997519
0.92881466
0.92198681
0.92183995
0.9280243
0.93900001
0.95327054
0.96739334
0.97692063
0.98059769
0.97931048
0.97458642
0.96713361
0.96081675
0.95809981
0.95988154
0.96393727
0.97119229
0.97994382
0.98767026
0.99122028
0.99124717
0.98793592
0.9818399
0.97481208
0.97092269
0.97226082
0.97826139
0.98810025
1.000234
1.0114662
1.017469
1.0178949
1.0138217
1.0072898
0.9993152
0.99461286
0.99539033
1.0018672
1.0115633
1.0242128
1.037336
1.0478848
1.0534777
1.0549551
1.0527522
1.0468708
1.0387431
1.0309043
1.0244162
1.0183686
1.013739
1.0112317
1.0106408
1.0099243
1.0104406
1.0123049
1.0149357
1.0159847
1.016676
1.0163984
1.0141864
1.009177
1.0035508
0.9983375
0.99375134
0.99059808
0.99066089
0.99393169
0.99844139
1.0035786
1.0086178
1.011774
1.0098492
1.0034273
0.993421
0.98157026
0.96877226
0.96043676
0.95926473
0.9657083
0.97729138
0.99294157
1.0091693
1.0221536
1.0299615
1.0342786
1.036245
1.0355759
1.0327
1.0279293
1.0202705
1.0077493
0.99216567
0.97573085
0.96010803
0.94448566
0.93083497
0.91899211
0.90860242
0.89916328
0.89441303
0.89624377
0.90448188
0.91689472
0.93182727
0.94564945
0.95465247
0.95839857
0.95967673
0.96102218
0.9628565
0.96637918
0.97130224
0.97615587
0.97860663
0.98122382
0.98644668
0.99596195
1.0083187
1.0236307
1.0385289
1.0487149
1.0507186
1.0459371
1.0361254
1.0229527
1.0085347
0.99530167
0.98310117
0.96980165
0.95551833
0.94168844
0.92996872
0.92100447
0.91821463
0.92317305
0.93538664
0.95094379
0.96911924
0.98730972
1.003094
1.0142543
1.0224812
1.0283155
1.0312339
1.0305027
1.0268801
1.0199093
1.0086267
0.99467559
0.98142763
0.97152688
0.96541013
0.96487933
0.96985626
0.9785258
0.98679278
0.99468443
1.0012215
1.0054039
1.0052532
1.0025409
0.99733413
0.9892936
0.97866326
0.96874293
0.96157121
0.95775379
0.95819376
0.96385269
0.97355308
0.98403910000000006
0.99416004
1.003089
1.0097623
1.011894
1.0110944
1.0083443
1.0045369
0.99925143
0.99582102
0.99527232
0.99724451
1.0001525
1.0044028
1.0085779
1.0105734
1.0097654
1.007791
1.0055724
1.0028921
1.0012776
1.002331
1.0065195
1.0123822
1.0211616
1.0326887
1.045404
1.054896
1.0607201
1.060964
1.0545956
1.0416185
1.0267614
1.0136816
1.0044966
1.0000032
1.0009512
1.0053462
1.0095211
1.0117969
1.0121569
1.010376
1.0050179
0.99737895
0.98835419
0.97853466
0.96726872
0.95817675
0.95310288
0.9523653
0.95361333
0.95668411
0.95932715
0.95940245
0.95644683
0.95398651
0.95472229
0.95951233
0.9686908
0.98196046
0.99679607
1.0092368
1.0186849
1.0257088
1.0307227
1.0321071
1.0312273
1.0277081
1.0208424
1.0092684
0.99677493
0.98592317
0.97841595
0.97440975
0.9750906
0.97874114
0.98217475
0.98344866
0.98314045
0.98163556
0.97863738
0.97568944
0.97413689
0.97401635
0.97376916
0.97476229
0.97770623
0.98284441
0.98858869
0.99634104
1.0052012
1.0136392
1.019847
1.0248608
1.0287358
1.0311758
1.0325261
1.0346962
1.0380331
1.0411781
1.0437524
1.045595
1.0452703
1.039888
1.0299104
1.0163278
1.0005788
0.98307688
0.96830826
0.95848661
0.95390158
0.95196393
0.95181612
0.95011242
0.94315586
0.92870474
0.90863975
0.88525558
0.86076565
0.8381841
0.81999427
0.80546524
0.79070319
0.77324647
0.75132753
0.72468937
0.69443565
0.66752638
0.65097079
0.65052121
0.66772104
0.7039241
0.75455592
0.81148158
0.86531356
0.9107283
0.94395912
0.96405651
0.97397739
0.97945987
0.98425694
0.98856628
0.99197855
0.99267954
0.9879198
0.97488469
0.9562368
0.93580111
0.917487
0.90227425000000006
0.89322285
0.88938608
0.88802276
0.88549894
0.88203449
0.87737348
0.87121423
0.86378997
0.85713503
0.85198379
0.8481019
0.84696073
0.85109221
0.86175298
0.87758352
0.89782053
0.9200557
0.94063537
0.95460326
0.96140096
0.96116312
0.9551772
0.94452262
0.93361348
0.92502452
0.9199088
0.91855381
0.92266558
0.93176683
0.94362457
0.95665832
0.97015518
0.98235004
0.9904619
0.99457392
0.99543896
0.99378665
0.98929141
0.98497406
0.98254419
0.98267369
0.98390395
0.98750324
0.9926618
0.99793138
1.0016809
1.004723
1.006606
1.0060531
1.0024772
0.99673221
0.98908646
0.97928285
0.96929446
0.96157652
0.95743992
0.95583175
0.95746604
0.96144611
0.96612652
0.96845381
0.96992053
0.9708237
0.97124894
0.97032744
0.96934899
0.96740013
0.96247151
0.95321328
0.94076125
0.92617989
0.91049104
0.89658983
0.88738593
0.88347299
0.88227212
0.88227947
0.88087169
0.87532302
0.86279446
0.84582532
0.82705137
0.80945996
0.79489289
0.78730911
0.78753292
0.79427459
0.80525648
0.8197557
0.83541444
0.84896192
0.858728
0.86483963
0.86731714
0.86588643
0.86326121
0.86231347
0.86463383
0.86887111
0.87520331
0.88107361
0.88267871
0.87531395
0.85981788
0.83804931
0.81404075
0.79307776
0.78244693
0.78530122
0.79982715
0.82089573
0.84230498
0.85687037
0.8589512
0.84891309
0.83159813
0.81350527
0.79963826
0.79545032
0.80233783
0.81817397
0.83739561
0.85776883
0.87639153
0.89125504
0.9007018
0.90632672
0.90854112
0.90705239
0.9020869
0.89605971
0.89065777
0.88658955
0.88550298
0.88877169
0.89558892
0.90253445
0.90803087
0.91042517
0.90852012
0.90084054
0.89082265
0.88127279
0.8744126
0.87040822
0.87105112
0.87528741
0.88058169
0.88422743
0.88609066
0.8856491
0.88211053
0.87610316
0.86944834
0.86303997
0.85659671
0.85191608
0.85084965
0.85432277
0.86100453
0.87161176
0.88489588
0.8984403
0.9081741
0.91414568
0.91581673
0.91340105
0.90786418
0.90334975
0.90235668
0.90546776
0.91250727
0.92336999
0.9357452
0.94563075
0.95122708
0.95218525
0.94861364
0.94013312
0.92992986
0.92049531
0.91328058
0.90697441
0.90333777
0.90174071
0.9008022
0.89840085
0.89568033
0.89265791
0.88886754
0.88440414
0.88141709
0.8809558
0.88289409
0.88821626
0.8980936
0.91189034
0.92648886
0.94057375
0.95252217
0.96085628
0.9635614
0.96359277
0.96335623
0.96481577
0.96794636
0.97469868
0.98402669
0.99329633
0.99969574
1.0032688
1.0036498
1.0003182
0.99447025
0.98866611
0.9842872
0.98095457
0.97999575
0.98209112
0.98650143
0.99016379
0.99304325
0.99414913
0.99255768
0.9866273
0.97930426
0.97239695
0.96717775
0.96399351
0.96500303
0.96995504
0.97677893
0.9835556
0.9898797
0.99447512
0.9952547
0.99264694
0.98823418
0.98335441
0.97893675
0.97704569
0.97781645
0.98050438
0.98387758
0.98879117
0.99426264
0.99824445
0.99808883
0.9924813
0.98071809
0.96513334
0.95197556
0.94836817
0.95708352
0.97453346
0.99312723
1.0039795
1.0023502
0.99149647
0.9830754
0.98772981
1.0076414
1.0329036
1.0481453
1.0398111
1.0083732
0.97217798
0.96057989
0.99382101
1.0670658
1.1453927
1.1747944
