1.0048977
0.99737413
1.0276365
1.0678563
1.0885332
1.076526
1.037504
0.98997457
0.95271746
0.93733574
0.94264683
0.95857781
0.97334077
0.98248173
0.98846464
0.99740855
1.0135967
1.0382545
1.0671313
1.0931754
1.1104305
1.1188032
1.1217032
1.1233865
1.1265533
1.132816
1.1410743
1.1486732
1.1536693
1.157012
1.1602161
1.1636443
1.1665071
1.1678408
1.1657137
1.1572533
1.1423338
1.1226782
1.1000768
1.0754252
1.0514713
1.030453
1.0130234
0.99789718
0.98604855
0.97834231
0.97509182
0.97514274
0.97997204
0.99030228
1.0058689
1.0242803
1.0457924
1.0695049
1.0937478
1.1148643
1.1328609
1.1469806
1.1567583
1.1604329
1.1609443
1.1597674
1.1579153
1.1537619
1.1496021
1.1450991
1.1394387
1.1302339
1.1194965
1.1074644
1.0941197
1.0781986
1.0618523
1.0451775
1.0278551
1.0090944
0.99161221
0.97658946
0.9646659
0.95586767
0.95252027
0.95482555
0.96180042
0.97195183
0.98592928
1.0026321
1.0198449
1.0354082
1.0495065
1.0615608
1.0708209
1.0778314
1.0852563
1.0941403
1.103505
1.1123318
1.1203286
1.1260061
1.1273862
1.1249882
1.1209835
1.1162871
1.1096679
1.1006689
1.088735
1.0726223
1.0510097
1.0263559
1.0023166
0.98165229
0.9645796
0.95209271
0.94365083
0.9377903
0.93252617
0.93010104
0.93328063000000006
0.94406889
0.96131825
0.9847608
1.0114866
1.0374736
1.0576988
1.0725242
1.0831358
1.0914879
1.0974168
1.1036498
1.1099383
1.1148758
1.1149322
1.1118163
1.1062105
1.0992157
1.0902048
1.0820351
1.074628
1.0667607
1.0557044
1.0426178
1.027398
1.0101855
0.99087525
0.97264532
0.95672966
0.9433686
0.93194928
0.92421734
0.92023819
0.91950921
0.92161685
0.92858545
0.94087059
0.95763398
0.97753072
1.000627
1.0253553
1.0492226
1.0705503
1.0897734
1.1063817
1.1188583
1.1267016
1.1310447
1.1323589
1.1306083
1.1276702
1.1263193
1.1273628
1.1288806
1.1292766
1.1266646
1.1184509
1.1021051
1.0791485
1.0529213
1.0267087
1.0020608
0.98166406
0.96645859
0.95559987
0.94656325
0.93994927
0.9366221
0.93744423
0.94171399
0.95094524
0.96480308
0.98153067
0.99722849
1.0114988
1.0237016
1.0339441
1.0413749
1.0490999
1.0582914
1.0688881
1.0777615
1.085209
1.0895268
1.0894784
1.0833966
1.0745379
1.0645692
1.0543728
1.042702
1.0307942
1.0175282
1.0016738
0.98231023
0.96270068
0.94497774
0.93043886
0.91897888
0.91176739
0.90739538
0.90369368
0.89921326
0.89587315
0.89509013
0.89769892
0.90413016
0.91558267
0.93087557
0.94731061
0.96275041
0.97719683
0.99016054
1.0006271
1.0086382
1.0153736
1.0206799
1.023174
1.0229058
1.0210813
1.018093
1.0131867
1.0072118
1.0012512
0.99511037
0.98707163
0.97745066
0.96682009
0.95522989
0.94175825
0.92810622
0.9157865
0.90543406
0.89596022
0.88849425
0.88339429
0.88047094
0.87828392
0.87850204
0.88211719
0.88947127
0.89877387
0.9107613
0.92459624
0.93894156
0.95092695
0.96158496
0.9709451
0.97900711
0.98389448
0.98753468
0.99001868
0.99133558
0.99017199
0.98901742
0.98836219
0.98781469
0.98517212
0.98109376
0.97454313
0.9646588
0.95080813
0.93610456
0.92235835
0.91043218
0.89986954
0.8916951
0.8848873
0.8779522
0.87012365
0.86378295
0.86065044
0.86167309
0.86722144
0.87830904
0.89353805
0.90991977
0.92490329
0.93806948
0.94877005
0.95623425
0.96106412
0.96526332
0.96959339
0.97332795
0.97655841
0.98002741
0.98340464
0.98518422
0.98551192
0.98506506
0.98352288
0.97916267
0.97218615
0.96314042
0.95217583
0.93861048
0.92442603
0.91151053
0.90078164
0.89117788
0.88358382
0.87805737
0.87422183
0.87069669
0.86947853
0.87205101
0.8791473
0.88903131
0.9020732
0.91680545
0.93122719
0.94203902
0.95032991
0.95673718
0.96218223
0.96565554
0.96954032
0.9738312
0.97785041
0.97930336
0.97977543
0.97943626
0.97831308
0.97523412
0.97208029
0.96878199
0.96466285
0.95829725
0.95130078
0.94386939
0.9357446
0.92626446
0.91723187
0.90900638
0.90144167
0.89448297
0.89030309
0.8896071
0.8920051
0.89683249
0.90487135
0.91546512
0.92708756
0.93884408
0.95159811
0.96508759
0.97785085
0.98896918
0.99869654
1.006352
1.0105106
1.011475
1.0109511
1.0098254
1.0075749
1.0048158
1.0022368
0.99928397
0.99405908
0.9868114
0.97832604
0.96891776
0.95771754
0.94606133
0.93493763
0.92449481
0.91341142
0.90298109
0.89415988
0.88751444
0.88217855
0.88001172
0.88178666000000006
0.88743336
0.89484857
0.90490025
0.91732477
0.93159565
0.94547928
0.96036504
0.97609678
0.99198705
1.0050687
1.0162247
1.0246344
1.0296383
1.0295566
1.0270517
1.0232978
1.0190176
1.0132392
1.0077905
1.0021579
0.99506722
0.9845472
0.97219616
0.9586606
0.9445998
0.93044766
0.91897347
0.91078555
0.90505541
0.9002692
0.89696781
0.894687
0.892936
0.8921885
0.89521111
0.90334435
0.91625813
0.93298133
0.95310587
0.97448964
0.99402948
1.0100623
1.0231526
1.0336546
1.0412462
1.0467761
1.0516468
1.0557547
1.0573949
1.0564777
1.0538159
1.0497921
1.0438333
1.0374999
1.0322283
1.027973
1.0225457
1.0156625
1.006909
0.99574541
0.98107846
0.96529452
0.95067437
0.93871995
0.92870922
0.92193587
0.91830501
0.91722021
0.91687262
0.9192437
0.92551109
0.93616884
0.94898245
0.96424416
0.98010393
0.99445348
1.003953
1.0103512
1.014554
1.0175911
1.0185807
1.0197235
1.0207593
1.0208419
1.0181858
1.0150624
1.0123965
1.0106227
1.0088223
1.0083843
1.0082806
1.0066115
1.0012861
0.99350869
0.98363107
0.97187078
0.95859195
0.94632959
0.93596148
0.92741301
0.92079768
0.91811464
0.92001138
0.92604851
0.93592352
0.95037053
0.96832897
0.98720206
1.0050022
1.0211958
1.0346324
1.0436746
1.0485679
1.0510211
1.0519075
1.0506815
1.0481293
1.0453499
1.042368
1.0378685
1.0326931
1.0279505
1.0237692
1.0185052
1.0125276
1.0058479
0.99788937
0.98702784
0.97483486
0.96276711
0.95180463
0.94115343
0.93248295
0.92612254
0.92172442
0.91747801
0.9151775
0.91585301
0.92036037
0.92760015
0.93945875
0.95554214
0.97438497
0.99205279
1.0085276
1.0224159
1.032847
1.0381844
1.0412241
1.0431822
1.0446791
1.0445565
1.0446386
1.044614
1.0436621
1.0403092
1.0364751
1.0323791
1.0273753
1.0199363
1.0109735
0.99992862
0.98612307
0.96959114
0.95327818
0.93883289
0.92667919
0.91665503
0.90967281
0.90499229
0.90130106
0.89860458
0.89923137
0.90461562
0.91472992
0.92936238
0.94840083
0.96975574
0.9899339
1.0070805
1.0212125
1.032248
1.0394027
1.0437083
1.0467192
1.0488225
1.048816
1.0475304
1.0460751
1.0447115
1.0420677
1.0389239
1.035539
1.031157
1.023442
1.0130361
1.0005516
0.98665978
0.97102722
0.95651503
0.94478274
0.936303
0.92910654
0.92393582
0.92036297
0.91822668
0.91653842
0.91863238
0.92639641
0.94056103
0.95838969
0.97959442
1.0013083
1.0206964
1.0345313
1.0448028
1.0528957
1.0600033
1.0653215
1.0704569
1.0745308
1.0761637
1.0737567
1.0697866
1.0654683
1.0610671
1.055373
1.0488722
1.0399983
1.0270018
1.0093213
0.99006393
0.9716379
0.95543866
0.94205383
0.9326232
0.92608401
0.92055987
0.91565329
0.91366629
0.91639615
0.9244118
0.93803161
0.95729054
0.97976463
1.0012654
1.0191195
1.0327102
1.0418181
1.0461451
1.0476361
1.0489211
1.0512733
1.0538412
1.0571162
1.0613203
1.065592
1.0675411
1.0673608
1.0651991
1.0605433
1.0514046
1.0387934
1.023528
1.0063731
0.98706942
0.96874503
0.95339118
0.94178553
0.93207295
0.92496035
0.91972042
0.9158087
0.91195976
0.91148418
0.91643674
0.92784225
0.94324667
0.96249592
0.98261446
1.0004912
1.012594
1.0207938
1.0266178
1.0316945
1.0358444
1.0412644
1.0474065
1.0528347
1.0555203
1.0572694
1.058625
1.0594056
1.0582874
1.0559477
1.0510906
1.0420806
1.0281865
1.0121362
0.99586813
0.98048526
0.96665225
0.95593903
0.94782092
0.9408147
0.93454944
0.93088221
0.93089428
0.93455527
0.94205341
0.95392179
0.96889082
0.98429495
0.99886661
1.0127827
1.0257124
1.0363062
1.0447638
1.0517967
1.0571646
1.0593705
1.0592171
1.0580778
1.0567087
1.0543243
1.0521798
1.050793
1.0493674
1.0451868
1.0383188
1.0287288
1.0165355
1.0010571
0.98515759
0.97070418
0.95848374
0.94679717
0.93657393
0.92729615
0.91855198
0.90915011
0.90234183
0.9001629
0.90387626
0.91168878
0.92446448
0.94036397
0.95719388
0.97179642
0.9856588
0.99921948
1.0125975
1.0240536
1.0345444
1.0427919
1.0471668
1.0459354
1.0416324
1.0359678
1.0302585
1.0247683
1.021446
1.0194582
1.0165334
1.0102952
1.001381
0.99000738
0.97660213
0.96237678
0.95022004
0.94081124
0.93291144
0.92517793
0.91780032
0.91060415
0.90380207
0.89968477
0.90203338
0.9125997
0.93007595
0.95215906
0.97602855
0.9978634
1.0140202
1.0246148
1.0323712
1.0398917
1.047652
1.056337
1.0651449
1.0716442
1.0724212
1.067979
1.0603388
1.0516813
1.0422944
1.0340156
1.0267269
1.0189032
1.0076176
0.99400465
0.97943891
0.965418
0.95156337
0.93996972
0.93057634
0.92251206
0.9134689
0.90541345
0.89952263
0.89699962
0.89694311
0.9015531
0.91052594
0.92292011
0.9363121
0.95205701
0.96997505
0.98933676
1.0076898
1.0253529
1.040776
1.052197
1.0577132
1.0594911
1.0588202
1.056675
1.0532261
1.0507194
1.0489322
1.0462687
1.0408185
1.0333479
1.0237367
1.0117903
0.99810651
0.98529812
0.97424215
0.96429649
0.9548032
0.94629099
0.93818871
0.92951244
0.92088035
0.91457221
0.91181872
0.9123067
0.91613523
0.92353773
0.93337867
0.94339268
0.95323306
0.96363589
0.97475662
0.98534461
0.99568461
1.0059454
1.0153698
1.0219441
1.0264334
1.029947
1.0331379
1.0349312
1.0365251
1.0378937
1.0378533
1.0334314
1.025121
1.0132522
0.99858289
0.98094919
0.96383998
0.94914771
0.9375852
0.92719717
0.91894684
0.9120962
0.90612902
0.89958164
0.89555609
0.89549791
0.9000585
0.90732542
0.91793853
0.93024679
0.94239501
0.95205253
0.9611093
0.97037095
0.98003212
0.98868416
0.99709468
1.0040237
1.0079184
1.0076111
1.0057102
1.0039937
1.0034397
1.0039938
1.0065946
1.0095631
1.0099679
1.0055777
0.99718919
0.98561147
0.9718352
0.95782517
0.94657074
0.93876288
0.93297548
0.92794888
0.92350725
0.91905372
0.91406945
0.91031332
0.91087023
0.91743612
0.9292728
0.94559614
0.96493285
0.98441602
1.0002543
1.0116166
1.0192374
1.0240184
1.0257097
1.0260096
1.0259392
1.0253789
1.0225578
1.0185534
1.0142167
1.0098689
1.0039491
0.99744736
0.99007211
0.98098854
0.96812876
0.95339722
0.93822032
0.9241013
0.91079983
0.90100005
0.89492818
0.89172017
0.88836699
0.88580171
0.88385369
0.88309875
0.88351999
0.88880583
0.90038161
0.91802687
0.93876832
0.96156248
0.98327859
1.00083
1.0115454
1.0172006
1.0191723
1.0186388
1.0159244
1.0133514
1.011086
1.0083598
1.0044288
1.0011965
0.9990708
0.99718251
0.99414188
0.98989757
0.98291716
0.97139134
0.95527735
0.93733814
0.91986786
0.9041548
0.89159921
0.88358582
0.87936946
0.87669812
0.87474226
0.87422456
0.87567032
0.87886459
0.88498945
0.89523439
0.90913588
0.92420647
0.93936754
0.95383545
0.96649998
0.97549894
0.98184849
0.98697184
0.99181926
0.99566607
1.0000351
1.0054046
1.0111984
1.014961
1.0172704
1.018002
1.0168188
1.0120058
1.0052918
0.99726914
0.98821698
0.97679249
0.96517209
0.95395354
0.94339692
0.93195446
0.92183568
0.91353876
0.90753438
0.90306684
0.90275137
0.90714058
0.91569743
0.92588655
0.93775553
0.94973266
0.96026373
0.96769904
0.97396343
0.97974363
0.98486476
0.98802437
0.99008005
0.99046866
0.98851674
0.9842397
0.98060405
0.97908204
0.97945438
0.98033969
0.981084
0.97923317
0.97204326
0.95882084
0.94210951
0.92446154
0.90774381
0.89406572
0.88536957
0.88110961
0.87882909
0.87731455
0.87686565
0.87769131
0.87950588
0.88384121
0.89247567
0.90547004
0.92056508
0.93666383
0.95272338
0.96720853
0.97779318
0.98521746
0.99079716
0.99540395
0.99815174
1.0004463
1.0028875
1.0053324
1.006025
1.0063763
1.0069079
1.0073246
1.0050995
1.000663
0.99328729
0.98250114
0.96713027
0.95061756
0.93541241
0.92347894
0.91408039
0.90922548
0.90825041
0.91008611
0.91268397
0.91825478
0.92779633
0.94174168
0.9584113
0.97824271
0.99915624
1.0183191
1.0324631
1.0424615
1.0488682
1.0524591
1.0535905
1.0549974
1.0572068
1.0592856
1.0596364
1.0591154
1.0574236
1.0538285
1.0480674
1.0419753
1.0357979
1.0285051
1.0193653
1.0092533
0.99809051
0.98531186
0.97177963
0.95978157
0.95030485
0.94276189
0.93721762
0.93417653
0.93316956
0.93302851
0.93475866
0.94036646
0.95095024
0.9656473
0.98435947
1.0061143
1.0284559
1.0474584
1.062179
1.0727659
1.0798906
1.0834346
1.0861931
1.0899497
1.0949406
1.0987101
1.1013025
1.1017232
1.0988932
1.0907264
1.0794288
1.066398
1.0526631
1.0370755
1.021714
1.0066407
0.99162574
0.97493234
0.9592454
0.94558151
0.93460032
0.9250609
0.91871934
0.91516758
0.91364335
0.91259665
0.91424118
0.91939837
0.9281954
0.9392236
0.95331281
0.96916736
0.98479079
0.99797685
1.0098371
1.0204086
1.0294146
1.0365373
1.0415758
1.0432304
1.0408949
1.0362677
1.0325744
1.0314824
1.0322948
1.0327553
1.029544
1.0194443
1.0022862
0.98291705
0.96798114
0.96121799
0.96095384
0.96164432
0.95598137
0.93971068
0.91595749
0.89625099
0.89309372
0.91173347
0.94527547
0.97804594
0.99247454
0.98064772
0.9518126
0.931603
0.94695791
1.0088714
1.1000585
1.1777623
1.1873157
