0.78707031
0.81332683
0.85384602
0.87417978
0.86318197
0.83434598
0.81017688
0.80567972
0.8188607
0.83520122
0.84107185
0.83518024
0.82593775
0.82182721
0.8268703
0.83677118
0.84341636
0.84269176
0.837881
0.83513061
0.83754428
0.84497407
0.8530755
0.85640051
0.8541089
0.84945423
0.84592685
0.84450874
0.84475906
0.84441036
0.84003151
0.8343438
0.82981147
0.82765215
0.82926649
0.834619
0.84133894
0.84669722
0.85191709
0.85714207
0.86043921
0.86183569
0.86039557
0.85492432
0.84664381
0.83993297
0.83758175
0.83835558
0.84243534
0.84668620000000006
0.84733422
0.84457147
0.8413033
0.83973078
0.84010848
0.84359955
0.84846516
0.85156557
0.85396222
0.85700223
0.86046791
0.86331936
0.86498334
0.86357762
0.85683856
0.84876092
0.8426495
0.83982423
0.84110401
0.84549243
0.84960343
0.85007406
0.84836209
0.84599569
0.84335122
0.84293892
0.84520091
0.84832281
0.85095179
0.85399757
0.85751392
0.8595896
0.86187493
0.86362529
0.86273995
0.85940174
0.8551463
0.85078524
0.84645352
0.84466576
0.84552022
0.84682612
0.84902685
0.85195456
0.85444201
0.85617068
0.85869589
0.86213305
0.86433157
0.86680225
0.86876136
0.86806401
0.86469998
0.85994357
0.85448612
0.84862937
0.84543962
0.84542304
0.8462647
0.84781392
0.84924386
0.84921904
0.84803489
0.84841492
0.85141507
0.85485395
0.85926609
0.86250252
0.86155857
0.85665322
0.85013911
0.84388345
0.83872708
0.83732971
0.83931602
0.84172138
0.84431267
0.8465346
0.84714155
0.84603184
0.84533907
0.84623216
0.84803851
0.85378161
0.8635774
0.87488454
0.88570671
0.89404659
0.89717769
0.89327995
0.88547096
0.87673236
0.86872175
0.8650522
0.8666933
0.87119381
0.87534628
0.87788997
0.87758912
0.87308098
0.86856074
0.86646019
0.86675277
0.86936401
0.87322124
0.8754512
0.87323073
0.86824974
0.8619186
0.85449462
0.84871422
0.84560661
0.84393094
0.84253583
0.84215177
0.84257249
0.84190443
0.84228817
0.84369428
0.84458971
0.84527491
0.84688903
0.84965479
0.85331278
0.8602748
0.87045442
0.88107534
0.89142466
0.89967948
0.90310754
0.90064314
0.89436251
0.88618603
0.87657879
0.86984809
0.86733339
0.8677808
0.87055964
0.87483888
0.87832248
0.87845252
0.87643508
0.87270294
0.86674489
0.86124413
0.85785979
0.85620322
0.85551687
0.85604446
0.85641346
0.85355123
0.84921271
0.84417499
0.83858143
0.83439598
0.83344645
0.83500864
0.83648905
0.83788075
0.83817843
0.83606502
0.83446782
0.83585722
0.84033874
0.8467768
0.85421894
0.85990342
0.86011003
0.85708627
0.852642
0.84776203000000006
0.84446373
0.84389285
0.84473376
0.84464025
0.84459216
0.84455696
0.84333978
0.84277113
0.84378005
0.84584953
0.84893736
0.85450573
0.86218402
0.86898481
0.87525604
0.87942453
0.87945891
0.87628262
0.87226821
0.86866666
0.86539271
0.86420968
0.86457681
0.86426129
0.86412028
0.864412
0.86385081
0.86126249
0.85710116
0.85120495
0.84268203
0.83555359
0.83177136
0.83072851
0.83181193
0.83377115
0.8342826
0.83175206
0.82898348
0.82770971
0.82716401
0.82774373
0.82777362
0.82430822
0.81643211
0.80699987
0.79901628
0.79354055
0.79403118
0.79973913
0.80682517
0.81270003
0.81607268
0.81597849
0.81239611
0.80899699
0.80753685
0.80713491
0.80872554
0.81186158
0.81482334
0.81690813
0.81950613
0.82254157
0.82348992
0.82347728
0.82197299
0.81817397
0.8141741
0.8130397
0.81567848
0.82037671
0.82640851
0.83064897
0.82924785
0.82337505
0.81567487
0.80846999
0.80393498
0.80419128
0.80814663
0.81168285
0.81479368
0.81663305
0.81624048
0.81507645
0.81525249
0.81714896
0.81974795
0.82432139
0.83019142
0.83495015
0.83909257
0.84259618
0.84429749
0.84370167
0.84231874
0.8406723
0.83758413
0.83597914
0.83667286
0.8386412
0.84184577
0.84617702
0.84998262
0.85115673
0.85117505
0.85073921
0.84945882
0.84974278
0.85263109
0.85688085
0.8608882
0.86445003
0.86642867
0.86459702
0.86143001
0.8580214
0.85415942
0.8508372
0.84897625
0.84790638
0.84632509
0.84599687
0.84735284
0.84920981
0.85272404
0.85764675
0.86192703
0.86399022
0.86438029
0.86321398
0.85956489
0.85660465
0.85512415
0.85374421
0.85196625
0.8495647
0.84567574
0.83988825
0.83542058
0.8338411
0.83411886
0.83654816
0.83943472
0.83953894
0.83510913
0.8277583
0.8193142
0.81031231
0.80477169
0.80330779
0.80367497
0.80437543
0.80437263
0.80220665
0.79700804
0.79170313
0.78779634
0.78463372
0.78342754
0.78382995
0.7839711
0.78291714
0.78203146
0.78176371
0.78064052
0.78073141
0.78179581
0.78233101
0.78289085
0.784783
0.78797654
0.79139133
0.79630595
0.80227486
0.80759738
0.81366054
0.82092835
0.82781876
0.8323862
0.83405292
0.83185704
0.82474638
0.81705494
0.81154027
0.80846394
0.8076857
0.80805432
0.80721839
0.80363691
0.80032291
0.79944256
0.80064184
0.80428403
0.80838619
0.80953434
0.80624596
0.80082454
0.79577261
0.79161743
0.79118147
0.79364835
0.79584358
0.79630227
0.79503793
0.79188461
0.78659191
0.78181551
0.77852021
0.77588242
0.77565675
0.77844503
0.78276626
0.7868319
0.79025068
0.79194409
0.79020656
0.78850609
0.78876559
0.79083761
0.79479864
0.80005906
0.8045193
0.80612385
0.80676981
0.80737367
0.80698189
0.8067312
0.80664943
0.80575125
0.80429583
0.80475091
0.80793797
0.811598
0.8161688
0.82000038
0.82115006
0.8209237
0.82217859
0.82601442
0.83098943
0.83654992
0.83985651
0.83757346
0.83146617
0.82477653
0.82003321
0.81891305
0.82248666
0.82867752
0.83298795
0.83572489
0.83692575
0.83652025
0.83629574
0.83794568
0.84090426
0.84310276
0.84511081
0.84609866
0.84402271
0.84025789
0.83611845
0.83208442
0.82919721
0.82974457
0.83371855
0.83799894
0.84276345
0.84647771
0.84722321
0.84593338
0.84478816
0.84449033
0.84411198
0.84460115
0.84478807
0.84219279
0.83817777
0.83438193
0.83155635
0.83054616
0.8329092
0.83777311
0.84165599
0.84527182
0.84829562
0.85009499
0.85226444
0.85651815
0.86203556
0.86597917
0.86798058
0.86684878
0.86150497
0.85552621
0.85231885
0.85284281
0.85636502
0.86194368
0.8667473
0.86702916
0.8650059
0.86235778
0.85944481
0.85718913
0.85574849
0.85360186
0.84934075
0.84573513
0.84448041
0.84493118
0.8478641
0.8521424
0.85526682
0.85632036
0.85741556
0.85977839
0.86186696
0.86492755
0.86749485
0.86716018
0.86455197
0.86204053
0.86083357
0.86043032
0.86190197
0.86385202
0.86355754
0.86244647
0.8622612
0.86347526
0.86605072
0.87022755
0.8739022
0.87311219
0.86926135
0.86340051
0.85637222
0.85082442
0.84889614
0.84983578
0.85092612
0.85222615
0.85288321
0.8516003
0.85112828
0.85368456
0.85917982
0.86643685
0.87470128
0.88142334
0.88275556
0.88060713
0.87641531
0.87094254
0.86638957
0.86446618
0.86439915
0.86405822
0.86447349
0.86546957
0.8655536
0.86627455
0.86813291
0.86981234
0.87024071
0.87022317
0.86957651
0.86661126
0.86445404
0.86459834
0.86709682
0.87310238
0.88309843
0.89477546
0.90409117
0.91011417
0.91154215
0.90734401
0.90121339
0.8967069
0.89509476
0.89625882
0.90007795
0.90431815
0.90528996
0.90486342
0.90410056
0.90300435
0.90266413
0.90356786
0.90407733
0.90191031
0.89863014
0.89511062
0.89105385
0.8889904
0.89001648
0.89300673
0.89669702
0.90127616
0.90549814
0.90628824
0.90514888
0.90229903
0.89742426
0.89253497
0.89008801
0.89036246
0.89168219
0.89433738
0.89662199
0.89574635
0.89302465
0.88982352
0.88635473
0.88293591
0.88084808
0.8795706
0.87677972
0.87466946
0.87373948
0.87311457
0.8733391
0.87498401
0.87712217
0.8783432
0.88047174
0.88351592
0.88532572
0.88626603
0.88583947
0.88276938
0.87732558
0.87226751
0.86899316
0.86617252
0.86550814
0.86594516
0.86517175
0.86335523
0.86175719
0.86032454
0.85772802
0.8548592
0.85059444
0.84260288
0.83271508
0.82306245
0.81479012
0.80907985
0.80778893
0.81025618
0.81320306
0.81765112
0.82318335
0.82857797
0.83459735
0.84222559
0.85036296
0.85645419
0.86078942
0.86228355
0.85892297
0.8527765
0.84590527
0.83912084
0.83328929
0.83025089
0.82971142
0.82895676
0.82966934
0.8318687
0.83441795
0.83795054
0.8434895
0.85045941
0.85730653
0.86528809
0.87355689
0.87913191
0.88198834
0.88212383
0.87952727
0.87592448999999994
0.87514212
0.87856943
0.88356768
0.89001981
0.89591485
0.89944252
0.90239725
0.9077094
0.9153655
0.9217632
0.92447478
0.92032495
0.90808511
0.89379641
0.88474558
0.8848803
0.89369131
0.90757585
0.91967948
0.92322197
0.92013274
0.91429175
0.90902458
0.90705536
0.90824032
0.9089895
0.90546885
0.89942136
0.89330769
0.88840876
0.88766732
0.89103258
0.89547539
0.89847685
0.90062076
0.90241609
0.90277972
0.90429202
0.90649593
0.90689479
0.90497989
0.90161044
0.89723041
0.89214335
0.88961404
0.89050966
0.893102
0.89788108
0.90396921
0.90903469
0.91170118
0.91304325
0.91359751
0.91247365
0.91290312
0.91540842
0.91830685
0.92114933
0.92399652
0.92623184
0.9273838
0.93012547
0.93461849
0.93798958
0.93922542
0.93665116
0.92885213
0.91722239
0.9062784
0.89884467
0.89388497
0.89195922
0.89035897
0.88579133
0.87877946
0.87197313
0.86680274
0.86254516
0.85944241
0.85528815
0.84738787
0.83820096
0.83098301
0.82736211
0.82749772
0.83082135
0.83424571
0.83360242
0.83092203
0.82791576
0.82521058
0.82404132
0.82445575
0.8243562
0.82155125
0.81809801
0.81519644
0.81217178
0.81027278
0.80870528
0.80499301
0.79818249
0.79065204
0.78455761
0.78014168
0.78070652
0.78576037
0.79202318
0.79756293
0.80162422
0.80350083
0.80314523
0.80405815
0.80760765
0.81225579
0.81801815
0.82344795
0.82609561
0.82518375
0.82298626
0.82125113
0.8195807
0.82047978
0.82328836
0.825316
0.82573144
0.82512345
0.82387704
0.82235955
0.82379223
0.82904981
0.8362499
0.84530768
0.85481427
0.86196625
0.86492359
0.86453678
0.86137681
0.85482757
0.84858692
0.84433495
0.84180778
0.84148996
0.84357462
0.84638527
0.84733626
0.84703759
0.84518853
0.84062081
0.83558591
0.83180324
0.82931548
0.82799436
0.82885225
0.83126761
0.83266628
0.83472977
0.83743652
0.83946437
0.84109162
0.84309638
0.84507037
0.84614851
0.84870293
0.85348374
0.85911576
0.86635823
0.87446212
0.88083622
0.88351087
0.883036
0.87968232
0.87269528
0.86592402
0.86103702
0.8575948
0.85597596
0.8564148
0.85753008
0.85738194
0.857555
0.85847887
0.85907042
0.8609716
0.86451538000000006
0.86799243
0.86980731
0.87039942
0.86970795
0.86662733
0.86471275
0.8653062
0.86733983
0.87031428
0.8737667
0.87626898
0.87659367
0.87742757
0.87967859
0.88146753
0.8827371
0.88245150000000006
0.87925968
0.87414617
0.87117911
0.87262392
0.87665438
0.88334713
0.88967037
0.89217189
0.89141529
0.89039436
0.89087118
0.89218825
0.89449811
0.89539142
0.89191064
0.88628865
0.88174957
0.88007614
0.88174027
0.88674194
0.89275327
0.89631317
0.89982835
0.90492025
0.91145728
0.91920195
0.9264709
0.92974705
0.92628091
0.91881133
0.91058801
0.90372073
0.90178014
0.90495853
0.90981612
0.91260672
0.91211424
0.90768729
0.89864556
0.88940309
0.88201492
0.87582567
0.87043637
0.86514438
0.85835694
0.84921584
0.84125555
0.83679938
0.83565132
0.83876624
0.84453725
0.8492903
0.85052767
0.84889356
0.84502533
0.83821174
0.83183012
0.82683885
0.82254223
0.81990026
0.8199969
0.82179037
0.82274985
0.82317696
0.82241606
0.81970746
0.81866785
0.82207803
0.82962876
0.83903
0.84788416
0.85255862
0.84964602
0.84293905
0.83613194
0.83132912
0.83030447
0.83272139
0.83530638
0.83438691
0.83109174
0.82695153
0.82292741
0.82252683
0.82709328
0.83493757
0.84374863
0.85274958
0.86038927
0.86402134
0.86582992
0.86644223
0.86515301
0.8628025
0.86065534
0.85857778
0.85560574
0.85351627
0.85214135
0.8493676
0.84608472
0.84316002
0.84106789
0.84136322
0.84698812
0.85794507
0.86995256
0.88123879
0.88806623
0.88723272
0.88019831
0.87141331
0.86452272
0.86080996
0.86182421
0.86513653
0.86595562
0.8636639
0.85928975
0.8545017
0.85198744
0.855065
0.86344614
0.87256691
0.88100374
0.88591019
0.88492851
0.87964427
0.87363619
0.86925922
0.86702941
0.86874156
0.87317073
0.87699787
0.88035003
0.88358548
0.88644241
0.88923189
0.89349187
0.89864922
0.90160417
0.90346767
0.90394985
0.9021266
0.89926628
0.89701085
0.89517278
0.89241458
0.89025752
0.88889718
0.88739073
0.88792734
0.89149679
0.89671113
0.90152456
0.90492287
0.90485649
0.89860062
0.88911788
0.87869597
0.86862066
0.86117779
0.85766527
0.85668963
0.8556241
0.85526652
0.85584939
0.85688953
0.86092285
0.86860146
0.87739811
0.88385659
0.88614717
0.88261773
0.8722203
0.86029878
0.85080149
0.84499712
0.84345219
0.84493818
0.84606616
0.84375166
0.8398798
0.83620795
0.83306157
0.8326108
0.83454769
0.83608643
0.83512353
0.83246486
0.82903917
0.82471653
0.82337635
0.82576608
0.82994453
0.83486413
0.83996512
0.84409189
0.84634981
0.84928098
0.85345374
0.8568505
0.85941536
0.86016669
0.85765413
0.85244407
0.84796362
0.84628836
0.84632033
0.84934018
0.85349768
0.85575811
0.85593912
0.85551908
0.8549626
0.8533521
0.85167975
0.84902413
0.84364153
0.83801312
0.8347068
0.8344593
0.83689291
0.84168609
0.84661946
0.84834698
0.84889412
0.84929438
0.84902532
0.84815606
0.84639635
0.84243713
0.83565072
0.82977622
0.82729938
0.82787673
0.83195773
0.83757208
0.841244
0.84135127
0.83977602
0.83813813
0.83587073
0.83517953
0.83522864
0.83435826
0.83260891
0.8302432
0.82779385
0.8269818
0.83032689
0.83726767
0.84429856
0.84814392
0.84557146
0.836805
0.82742314
0.82421533
0.82891314
0.83610328
0.83841876
0.83018319
0.81478201
0.80543966
0.81388324
0.83890142
0.86417259
0.86863777
0.84187491
0.79744387
0.76993354
0.78907824
0.85356391
0.92218453
