0.67175775
0.70561774
0.73998642
0.74650963
0.72557989
0.69662279
0.67904507
0.67837565
0.68671048
0.69558339
0.70449433
0.71712032
0.73534797
0.75669687
0.77460353
0.78466237
0.78954653
0.7945593
0.80301157
0.81550487
0.82776066
0.83337587
0.8303557
0.82056833
0.80816029
0.79962947
0.79728934
0.7964418
0.79312016
0.78443051
0.7720768
0.76605796
0.77070099
0.77828223
0.77673567
0.75556531
0.71639294
0.67928115
0.6674368
0.68945735
0.73508881
0.77980959
0.80071802
0.79484085
0.77793476
0.76876458
0.77681845
0.79638501
0.81166263
0.81275352
0.80323407
0.79319934
0.79172923
0.80145994
0.8153043
0.82477228
0.82865474
0.82914847
0.82923979
0.83263523
0.83750602
0.83903054
0.83734265
0.83314425
0.82654904
0.82114382
0.81654872
0.80905363
0.79930309
0.78946203
0.7827119
0.78496138
0.79665792
0.80899488
0.81128827
0.79582292
0.76360902
0.72924711
0.71136605
0.71845009
0.74529242
0.77589693
0.79238332
0.78920181
0.77607273
0.76672152
0.7698105
0.78451402
0.7997129
0.80464698
0.79871696
0.7872629
0.77735863
0.77567343
0.78120215
0.78813251
0.79462425
0.79912033
0.7998719
0.7996415
0.7987638
0.79583828
0.79375231
0.79431191
0.79672595
0.80170406
0.8075184
0.81007978
0.80878699
0.80439162
0.79717587
0.78986018
0.78492867
0.78147119
0.77846394
0.77501751
0.7688811
0.76024356
0.75224464
0.74651237
0.74404705
0.74609768
0.75045851
0.75418757
0.75734835
0.75907466
0.75851694
0.75804174
0.75785147
0.75639177
0.75545177
0.75506161
0.75366608
0.75403768
0.75675953
0.76004571
0.76508891
0.77118576
0.77570202
0.77934343
0.78210442
0.78219084
0.78056718
0.77822193
0.77469769
0.77185184
0.77141752
0.77195362
0.77210776
0.77085531
0.76588996
0.75735075
0.74837622
0.74048352
0.73444722
0.73165258
0.73054949
0.72925573
0.72926534
0.73077963
0.73303624
0.73762081
0.74342936
0.74761935
0.75109302
0.75349084
0.7530803
0.75232021
0.75186713
0.75074586
0.75151826
0.75511408
0.7600856
0.76731486
0.7761858
0.78397622
0.79070905
0.79656263
0.80031177
0.80311442
0.80660947
0.8104318
0.81518256
0.82143612
0.82672117
0.82867176
0.82661413
0.81913127
0.80666593
0.79294545
0.77976205
0.76733826
0.75702301
0.74746329
0.73667275
0.72683368
0.71914335
0.71340136
0.71238855
0.7161171
0.72182773
0.73024262
0.73963888
0.74614475
0.74975479
0.75031772
0.74763352
0.74585309
0.74805816
0.75368755
0.76244039
0.77232462
0.77990251
0.78563412
0.79191066
0.79934261
0.80859921
0.81907034
0.82685052
0.8294582
0.82778315
0.82288925
0.8171895
0.81429263
0.81371852
0.8125686
0.80977023
0.80353484
0.79339281
0.78366107
0.77674748
0.77167393
0.76884459
0.76588959
0.75921395
0.75138027
0.74449623
0.73870278
0.73648059
0.73768108
0.73996811
0.74460373
0.75233585
0.76121536
0.7703567
0.7776746
0.7798174
0.77743767
0.77333853
0.76887875
0.7659076
0.76553303
0.76607153
0.76710775
0.77030866
0.77543727
0.78193952
0.79045557
0.79947835
0.80777359
0.81709069
0.82666474
0.83357031
0.83704067
0.83502053
0.82622709
0.81533128
0.80603237
0.79874714
0.79534683
0.79375435
0.78977746
0.78411147
0.77769349
0.7701903
0.76384524
0.75932301
0.75512082
0.75253625
0.75263318
0.75392061
0.75592218
0.75803547
0.7584633
0.75823234
0.76005977
0.76412993
0.76969315
0.77569593
0.77887705
0.77763069
0.77415896
0.76973786
0.76512571
0.76260334
0.76168304
0.76109426
0.7631657
0.76812557
0.77383277
0.78062589
0.78630518
0.78721427
0.7854301
0.78233241
0.77775981
0.77451278
0.7728781
0.77049305
0.76807985
0.76588324
0.76241102
0.75864952
0.75533219
0.75146002
0.74832643
0.74749558
0.74787568
0.74894239
0.75086914
0.75258789
0.75485851
0.75992848
0.76679753
0.77302153
0.77758964
0.77920883
0.77901592
0.7819116
0.78922535
0.79771299
0.80428365
0.80486464
0.79839103
0.79166928
0.7903665
0.79445028
0.80237294
0.80790101
0.80532244
0.79790931
0.79159611
0.78994611
0.79506105
0.80338204
0.80794218
0.80664584
0.80094289
0.7924961
0.78422456
0.7772344
0.76933843
0.76022376
0.75191565
0.74516959
0.74073948
0.7391752
0.73791671
0.73482073
0.73080765
0.72579699
0.719695
0.71464889
0.71070384
0.70737336
0.70754586
0.71201401
0.71929511
0.73009069
0.74212995
0.75094179
0.75694071
0.75972975
0.75830977
0.75626066
0.7560639
0.75794388
0.76416254
0.77436352
0.78459119
0.79282052
0.79756166
0.7973858
0.79485843
0.79341032
0.79315208
0.79326968
0.79227247
0.78700192
0.77699516
0.76533321
0.75402479
0.74447622
0.73842419
0.73469488
0.73195021
0.73212708
0.73585941
0.7423254
0.75209332
0.76256185
0.76945807
0.7730752
0.77377905
0.77152707
0.77056087
0.77213082
0.77410334
0.77674226
0.77907925
0.77952539
0.7807109
0.78445884
0.78937166
0.79477645
0.79861796
0.79748868
0.79192034
0.78455317
0.77653966
0.76947055
0.76419116
0.75859323
0.75170708
0.74515931
0.73954215
0.7356445
0.73533839
0.73749762
0.74002529
0.74333898
0.74633617
0.74727726
0.74749291
0.74629303
0.7416496
0.73582945
0.73019231
0.72489534
0.72417799
0.72921986
0.73756968999999994
0.74868859
0.75991063
0.76737089
0.77189701
0.77504032
0.77717109
0.78068074
0.78621208
0.79113777
0.79424694
0.79501773
0.79215462
0.7869109
0.78187365
0.77741264
0.77401567
0.77306639
0.77399948
0.776618
0.78238089
0.78974477
0.7954515
0.79818646
0.79576364
0.78739162
0.77746059
0.76903252
0.762342
0.75904402
0.75768067
0.75497848
0.75273579
0.75138869
0.74893336
0.74599808
0.74183827
0.73528951
0.73017669
0.7299233
0.73417441
0.74211641
0.75065451
0.75536973
0.75662606
0.75768343
0.76024063
0.76549857
0.77291386
0.77865411
0.78059379
0.78013779
0.77822704
0.77616078
0.77633787
0.77814532
0.78024794
0.78397027
0.78836676000000006
0.79091083
0.79183621
0.78996638
0.78410236
0.7783963
0.77565125
0.77540349
0.77908403
0.78424519
0.78610745
0.78490036
0.78162938
0.77692373
0.77465754
0.77688575
0.78204934
0.78962694
0.79798331
0.80344629
0.8051959
0.8044591
0.80234466
0.80216602
0.80688136
0.81459718
0.82158778
0.82520249
0.82348091
0.81858355
0.81649748
0.81933822
0.82454568
0.82882567
0.82781166
0.82083756
0.81474966
0.81474909
0.82015042
0.82830067
0.83255182
0.82745425
0.81779211
0.81007323
0.80733749
0.81091731
0.81594425
0.81516134
0.80832786
0.79896228
0.79021202
0.7856338
0.78478111
0.78315449
0.77919048
0.77401323
0.76829641
0.76385099
0.7618805
0.76056863
0.75923935
0.75940536
0.76082242
0.76306683
0.76707397
0.7718088
0.77665972
0.78388003
0.79290431
0.80082482
0.80692492
0.80938184
0.80729448
0.80544477
0.80661315
0.80929403
0.81349592
0.81595796
0.81283436
0.80689596
0.80159567
0.79830929
0.7992789
0.80296039
0.80428719
0.80153404
0.79513099
0.7859904
0.77795928
0.77405137
0.77286098
0.77237709
0.77130439
0.76802282
0.76375309
0.76168696
0.76138978
0.76026839
0.75703147
0.75073
0.74403346
0.74434288
0.75492253
0.77248415
0.79157649
0.80405435
0.80500065
0.79965254
0.79482165
0.7934509
0.79734794
0.80214924
0.80195378
0.79822763
0.79457366
0.79296416
0.79568742
0.80074282
0.80305309
0.80196922
0.79934756
0.79638544
0.7952721
0.79628199
0.79619821
0.79361764
0.78987702
0.78600819
0.78393378
0.78521069
0.78687668
0.78489362
0.77851035
0.76842581
0.75811917
0.7537344
0.75578378
0.75867777
0.75739727
0.74790707
0.73192153
0.72107781
0.72533566
0.74574605
0.77760914
0.80799604
0.82377725
0.82342314
0.81264848
0.7992826
0.79191859
0.79252394
0.79653674
0.8008103
0.80352515
0.80309922
0.80097926
0.79866364
0.7952896
0.7915571
0.78932891
0.78831886
0.7882794
0.78941043
0.78952992
0.78715394
0.78363148
0.77898973
0.7730618
0.76799978
0.7637385
0.75912428
0.7559237
0.7539134
0.75121097
0.7490972
0.74676278
0.74138085
0.7349023
0.72845345
0.72261483
0.72195858
0.72823899
0.73879276
0.75166329
0.76330419
0.7697539
0.77216594
0.77315488
0.77342958
0.77427782
0.77579176
0.77604011
0.77561629
0.77682374
0.77966049
0.78335512
0.78681703
0.78689954
0.78246052
0.7764927
0.77122695
0.76790669
0.76820781
0.77012037
0.77033231
0.76933401
0.76699027
0.76247488
0.7583177
0.7547231
0.74966656
0.74506935
0.7412642
0.73697904
0.73414595
0.73290976
0.73117684
0.72963567
0.72824355
0.72551388000000006
0.72283352
0.72134505
0.72005277
0.71947332
0.72001311
0.72023241
0.7204292
0.72189426
0.7239261
0.72635248
0.72995308
0.73352037
0.73638616
0.73990529
0.74331111
0.74509928
0.74590121
0.7446174
0.74003083
0.73482868
0.73024831
0.72583021
0.72386974
0.72396849
0.72325764
0.72313847
0.72356529
0.72291688
0.72305964
0.72404433
0.72350637
0.72204365
0.72001514
0.7166437
0.71406488
0.71391796
0.71492145
0.71657998
0.71836123
0.71851697
0.71795339
0.71947775
0.72390704
0.73148259
0.74193513
0.75181126
0.75804805
0.76103306
0.7614347
0.76117555
0.76450705
0.77228628
0.78236325
0.79378437
0.80348817
0.80809729
0.8094937
0.8091143
0.80664942
0.8049937
0.8041669
0.80187105
0.79921531
0.79627041
0.79151379
0.78626334
0.78103875
0.77476822
0.76909407
0.76543672
0.76273704
0.76095217
0.75975966
0.7568121
0.75150611
0.74472452
0.73582943
0.72530257
0.71556621
0.70781665
0.7040489
0.70798071
0.71982464
0.73692071
0.75656953
0.77279346
0.77952844
0.7766164
0.76559338
0.74934091
0.73500951
0.72590024
0.72022534
0.71833959
0.7186847
0.71980994
0.72601759
0.73998951
0.75957429
0.7819202
0.80114062
0.81055317
0.81002271
0.80343705
0.79466067
0.78845403
0.78704618
0.78804544
0.78940409
0.79048427
0.78962902
0.78656745
0.78285822
0.77853885
0.77433446
0.77320769
0.77557048
0.78006049
0.7864677
0.79226183
0.79495721
0.79672986
0.79887509
0.80106928
0.80539835
0.81101996
0.81468545
0.81734169
0.81870158
0.81723443
0.81522259
0.81390537
0.81288079
0.81443419
0.81866837
0.82221527
0.82337114
0.82091782
0.81418952
0.80701686
0.80391796
0.80507667
0.80853818
0.81108577
0.80852217
0.80095351
0.79305751
0.78803491
0.78688743
0.78916033
0.79058109
0.78742673
0.78108272
0.77303344
0.76415868
0.75721152
0.75158822
0.74491221
0.73918447
0.73525814
0.73182691
0.73047864
0.72921549
0.72397432
0.71632948
0.70977282
0.70859431
0.71965452
0.74409403
0.77415851
0.79969636
0.81087333
0.80278797
0.78190464
0.76096866
0.74982311
0.7527561
0.76653932
0.78161493
0.79085792
0.7936321
0.79173176
0.78820563
0.78598401
0.78358196
0.7786609
0.77277464
0.76729642
0.76310786
0.76270629
0.76472882
0.76526311
0.76425329
0.76133998
0.75574189
0.75119279
0.7490011
0.74747593
0.74719625
0.74711995
0.7449947
0.74259618
0.74158364
0.74158112
0.74379334
0.74792103
0.7513202
0.75366446
0.75560793
0.75637678
0.75647255
0.75672347
0.7558947
0.75394131
0.75254255
0.75155321
0.7508104
0.75147078
0.75233074
0.75191677
0.75151021
0.75078276
0.74866473
0.74695221
0.74544875
0.74259753
0.74051385
0.73955815
0.73799409
0.73776041
0.73842614
0.73741043
0.73567469
0.73313191
0.72829991
0.72306663
0.71859901
0.71396181
0.71040398
0.70873631
0.70788284
0.70877737
0.71253907
0.71801496
0.72480065
0.73262082
0.73896518
0.74239682
0.74362139
0.74254956
0.74020806
0.73955911
0.74098119
0.74353368
0.74792483
0.75290195
0.75679982
0.76128246
0.76601386
0.76870076
0.77025523
0.77028325
0.76755163
0.76581788
0.76674585
0.76865004
0.77144311
0.77269742
0.76880889
0.76114759
0.75227419
0.74346137
0.73732634
0.73444279
0.73211914
0.72932269
0.72618448
0.72205672
0.71831191
0.71715654
0.71832378
0.72157599
0.72734675
0.73364924
0.73868805
0.74311018
0.74667166
0.74970291
0.75494861
0.76224794
0.7691504
0.77526824
0.77885269
0.77845115
0.77767704
0.77858197
0.77997561
0.78286112
0.78514835
0.78328434
0.77883533
0.77340211
0.76715622000000006
0.76273916
0.76106045
0.76051687
0.76187726
0.76557105
0.76946104
0.77239852
0.77312116
0.76899579
0.76031703
0.75012457
0.74040786
0.73328221
0.73050725
0.72996109
0.72882801
0.72695734
0.72407112
0.72136361
0.7231463
0.73065901
0.74190077
0.75558458
0.76758579
0.77343453
0.77461646
0.77320274
0.77053878
0.77146382
0.77697094
0.78421161
0.79268733
0.80046831
0.80466031
0.80657517
0.80745239
0.80670787
0.80586801
0.805643
0.80448369
0.80282167
0.80151901
0.79954164
0.7971117
0.79510695
0.79226682
0.78808752
0.78366785
0.77835861
0.77179798
0.765606
0.75953044
0.75302846
0.74806536
0.74464801
0.74167277
0.74076586
0.74150068
0.74210081
0.74447657
0.74872649
0.75284533
0.75847379
0.76484928
0.76919069
0.77242043
0.77441351
0.77380849
0.77290557
0.77327126
0.77428062
0.77723524
0.78223195
0.78671828
0.78990531
0.79152138
0.79007133
0.78635608
0.7824767
0.77842638
0.77450485
0.77185324
0.76930571
0.76599705
0.76327771
0.76063754
0.75711129
0.7541025
0.75110932
0.746878
0.74334132
0.74050179
0.73669084
0.73386873
0.73252231
0.73157676
0.73409838
0.74034466
0.74720679
0.75391437
0.75806416
0.75658913
0.75174272
0.74691685
0.74416576
0.74693806
0.75594616
0.76742785
0.7784111
0.78675379
0.79012437
0.7896225
0.78824846
0.78654256
0.78467277
0.78348401
0.78206858
0.78070548
0.78225484
0.78689105
0.79263552
0.79839912
0.80105693
0.79826337
0.79312694
0.78836929
0.78481631
0.78496738
0.78758673
0.7886757
0.78895312
0.78851765
0.78653197
0.78584252
0.78741078
0.78977253
0.79404072
0.80022228
0.80694035
0.81345642
0.81758601
0.81769296
0.81600659
0.81484802
0.81390128
0.81144808
0.80468452
0.7932571
0.78301123
0.78062573
0.7859758
0.79199356
0.78995236
0.77795634
0.76679768
0.77122716
0.79261836
0.8141295
0.8132805
0.78252144
0.74398165
0.73706006
0.78008153
0.8435749
