0.75287792
0.80389938
0.83937502
0.83711126
0.81093328
0.78758677
0.7808315
0.78126649
0.77013591
0.74312001
0.71443023
0.70197959
0.71380212
0.74186159
0.76900234
0.78410582
0.78618454
0.77836892
0.76404985
0.74517836
0.72400158
0.70807251
0.70745124
0.72633323
0.7610094
0.80102939
0.83223394
0.84713001
0.84490189
0.82787148
0.80276734
0.77556436
0.74846314
0.72533815
0.71069191
0.70708353
0.71769543
0.74252632
0.77497908
0.80662336
0.82856268
0.83259044
0.81735303
0.78794981
0.75154196
0.71762436
0.69463874
0.68568926
0.69171465
0.71182112
0.74131678
0.77582584
0.81226104
0.84612251
0.8745764
0.8969712
0.91034458
0.91225061
0.9030008
0.88302249
0.85622841
0.82991293
0.80806699
0.79159002999999994
0.77934539
0.76616796
0.74806762
0.72634383
0.70373695
0.68465451
0.67498733
0.67596125
0.68519748
0.69931439
0.71095137
0.71335122
0.70633299
0.69371118
0.6839673
0.68991924
0.71802235
0.76497023
0.82212085
0.87415042
0.90617821
0.91367073
0.89776936
0.86420061
0.82403399
0.78483245
0.75054819
0.7267686
0.71460035
0.71122082
0.7155585
0.72321882
0.72835851
0.73013643
0.72688339
0.71629409
0.70129448
0.68579196
0.67489923
0.67787207
0.6985472
0.7327103
0.77538171
0.82058874
0.86494169
0.9115289
0.9580118
0.99112665
0.9955077
0.96043968
0.89063012
0.81282327
0.75776915
0.74140834
0.76095017
0.79507293
0.81909874
0.82445021
0.81609415
0.80210203
0.78809105
0.77125498
0.74517107
0.71215317
0.68097438
0.65918048
0.65113591
0.65414768
0.66178469
0.67354805
0.69266043
0.71926348
0.74985419
0.77565342
0.78614011
0.7799043
0.76429305
0.74902934
0.74444035
0.75512762
0.77760847
0.80685092
0.83614155
0.85573129
0.85859729
0.84292766
0.81235813
0.77926375
0.7589651
0.758884
0.77713128
0.80379519
0.82455885
0.83098309
0.82312729
0.80391379
0.77844985
0.75367016
0.73587061
0.73298278
0.7517689
0.78837794
0.82850726
0.85405591
0.85004324
0.81580755
0.76676966
0.72211936
0.69575148
0.69154259
0.70149875
0.71556592
0.73079686
0.74804085
0.76943475
0.79573478
0.81926178
0.82902885
0.82026089
0.79464319
0.76214215
0.73876483
0.73380091
0.74591416
0.76772989
0.78738364
0.79696222
0.79914822
0.79809685
0.79441938
0.78726082
0.77173618
0.74506855
0.71425595
0.68780568
0.67089971
0.66712799
0.67430064
0.68926866
0.71454131
0.7498923
0.78827559
0.82072349
0.83622253
0.82870261
0.80605468
0.77971572
0.75661153
0.74050211
0.72778571
0.71378816
0.70299241
0.70192582
0.71336738
0.73731239
0.76679936
0.79214095
0.81048858
0.82120048
0.8222344
0.81371048
0.79442872
0.76405074
0.73013704
0.7014451
0.68205129
0.67309461
0.67087739
0.67036
0.67325153
0.68428109
0.70525704
0.73531292
0.76747904
0.79073342
0.79995522
0.79558662
0.78048849
0.76125806
0.74308702
0.72691577
0.71424626
0.70621541
0.70204441
0.70318898
0.71214451
0.72969417
0.75704984
0.7920657
0.82519497
0.84555333
0.84527166
0.82172619
0.78303445
0.74388096
0.71506879
0.70125605
0.70063581
0.70608853
0.71367133
0.72547306
0.74431587
0.7716829
0.8047042
0.83285141
0.84507763
0.83683035
0.8096686
0.77296163
0.74025107
0.7190557
0.71029758
0.7118019
0.7189795
0.73066741
0.75068796
0.78000289
0.81502078
0.84995939
0.87694524
0.89224617
0.89934265
0.90038119
0.89360788
0.87652659
0.84542057
0.80252783
0.76070109
0.73352948
0.72879453
0.74725774
0.77932663
0.81197982
0.83864695
0.85604938
0.86315201
0.86300041
0.8555942
0.83937139
0.81803903
0.79460574
0.77052478
0.74973497
0.73212213
0.71475605
0.69997401
0.69101613
0.69131578
0.70785921
0.74096121
0.78177991
0.82036155
0.84380547
0.8425765
0.8206669
0.7878555
0.75472251
0.73303975
0.72654465
0.73127851
0.74428122
0.76147528
0.77843332
0.796231
0.81577567
0.83590573
0.85784243
0.87940684
0.89462285
0.90092889
0.89748398
0.88592984
0.87417434
0.86849429
0.86827565
0.87005028
0.86753489
0.85514303
0.83597843
0.81751138
0.80446543
0.7991782
0.79863947
0.79591094
0.78921001
0.78099677
0.77415309
0.77307321
0.77969824
0.79163318
0.80680671
0.82177679
0.8290194
0.82223966
0.79916086
0.76290545
0.72564862
0.70162638
0.69605774
0.70521795
0.71981477
0.73100719
0.74040014
0.75739158
0.78749138
0.82822726
0.86913678
0.89635783
0.90444132
0.89856164
0.88530257
0.86821423
0.84633506
0.81494558
0.77490343
0.735956
0.70819146
0.69725398
0.70212
0.71412776
0.72574134
0.73661574
0.74879554
0.76436202
0.78347254
0.79998282
0.80664912
0.80132948
0.78382215
0.75674109
0.72718466
0.70083301
0.68209038
0.67590246
0.68152765
0.69382989
0.7090473
0.72326969
0.73544941
0.74977592
0.76615146
0.77875157
0.78245205
0.77204941
0.74770492
0.71976161
0.69731169
0.68271133
0.67480677
0.66796001
0.65884645
0.65424058
0.66177646
0.68309467
0.71569882
0.74961659
0.77380446
0.78728082
0.79211658
0.78917844
0.78059424
0.76507705
0.74199986
0.71887289
0.70376112
0.69988537
0.70801907
0.72391042
0.74225345
0.76397983
0.78917646
0.81203899
0.82524561
0.82049783
0.79480006
0.75852685
0.72660332
0.70847072
0.7070745
0.71661294
0.72776246
0.73836913
0.75051056
0.76394841
0.77617409
0.78045824
0.7695679
0.74542813
0.71697734
0.6935625
0.68286889
0.68518062
0.69314786
0.70079204
0.70548831
0.70650216
0.70693928
0.70962618
0.7132639
0.71676609
0.71996246
0.72263466
0.72798486
0.73972108
0.75732361
0.77865565
0.80019474
0.81659145
0.82592915
0.82960621
0.82730168
0.81845674
0.80301181
0.77975898
0.75133496
0.72512396
0.70719723
0.7017506
0.70980692
0.72610821
0.74432675
0.76114934
0.77386381
0.78185935
0.78656511
0.7860647
0.77739291
0.76082092
0.73692272
0.70895239
0.68489021
0.66996842
0.66610598
0.67435971
0.6915234
0.71396418
0.74191656
0.77452493
0.80951201
0.84453557
0.87223107
0.88392162
0.87691873
0.85203119
0.81494748
0.77745758
0.74797991
0.72938891
0.72273247
0.72475605
0.73217101
0.74817376
0.77643223
0.8180996
0.87330367
0.93367641
0.98430589
1.0142079
1.0152127
0.98525497
0.93369431
0.87229436
0.81109677
0.76089889
0.72635346
0.70628331
0.70077389
0.70686958
0.71880054
0.73390337
0.74754321
0.75376912
0.75209247
0.74282046
0.72679547
0.70970784
0.6954824
0.68508071
0.68194814
0.68854426
0.70547943
0.73499246
0.77431794
0.81302442
0.84015001
0.84585912
0.82601294
0.7895099
0.75084368
0.72188515
0.71104209
0.71749201
0.73275671
0.75024813
0.7649282
0.77170438
0.7691251
0.7573325
0.73699186
0.71350904
0.69344656
0.67944192
0.67215442
0.66964505
0.66848698
0.67010635
0.67913388
0.69776469
0.72551092
0.75715443
0.78233709
0.79319978
0.78780722
0.76840673
0.74268027
0.71978304
0.70417573
0.69764037
0.69995941
0.70762265
0.71859552
0.733234
0.74954473
0.76466726
0.77597836
0.77868681
0.77031354
0.75307149
0.72969806
0.70445963
0.68307974
0.668213
0.66138659
0.66454683
0.67588267
0.69157939
0.70881264
0.7231911
0.73158918
0.73495188
0.733107
0.72555066
0.71475688
0.7026634
0.6928598
0.69264495
0.70544378
0.72955839
0.76153956
0.79320433
0.81575899
0.82669394
0.82512014
0.81138875
0.79013057
0.76411407
0.73505132
0.70839301
0.68753447
0.6735704
0.66930707
0.67353303
0.68197344
0.69406722
0.70838834
0.72252078
0.73756949
0.75159038
0.7594371
0.76000043
0.75260503
0.73852694
0.72621452
0.72304266
0.73156304
0.75309613
0.78232619
0.80908722
0.82760517
0.83443981
0.82855079
0.8148785
0.7968015
0.77411062
0.74934223
0.72560838
0.70721716
0.70297961
0.71722159
0.74447521
0.77460398
0.79500878
0.79678305
0.78290402
0.76262396
0.74340221
0.73002771
0.72188081
0.71573464
0.7145515
0.72437182
0.74723749
0.78093492
0.81622038
0.83916707
0.84171967
0.82386347
0.79093014
0.75382491
0.72287595
0.70257589
0.69517077
0.70033956
0.71403772
0.73297604
0.75331682
0.76772101
0.77050629
0.76047162
0.74003011
0.7175195
0.70255767
0.69725545
0.69864416
0.70410226
0.71405011
0.73622926
0.7793562
0.8385372
0.89400893
0.92103551
0.90274958
0.84543935
0.77812586
0.73189011
0.72275418
0.74458896
0.77301619
0.78538932
0.77656091
0.75613264
0.74073578
0.74409075
0.76617821
0.79709362
0.82717914
0.84896775
0.86106468
0.86936913
0.87864993
0.89063324
0.90562014
0.91835763
0.92215831
0.9166978
0.9048959
0.8922147
0.88653178
0.88813104
0.88912011
0.88183909
0.85922899
0.82049093
0.7763839
0.7387668
0.71555862
0.71182472
0.72394469
0.74296896
0.76439917
0.78461235
0.8004042
0.81253632
0.81785384
0.81020383
0.79018545
0.76262651
0.73679878
0.72738337
0.74110362
0.77214635
0.80957582
0.83927748
0.85240771
0.85438769
0.85445938
0.85670705
0.86113137
0.85972739
0.84298128
0.8130237
0.77954608
0.75349865
0.74503902
0.75436025
0.77199652
0.78924555
0.80009987
0.80220832
0.79991529
0.79700224
0.79192289
0.78278475
0.76720806
0.74385603
0.71785882
0.69521563
0.67740352
0.66456671
0.65609798
0.65319971
0.66392765
0.6965406
0.74991211
0.81388595
0.87134307
0.90532046
0.91136166
0.89666521
0.87081133
0.8419628
0.81309061
0.78296833
0.75482372
0.73650776
0.73332361
0.74607225
0.76964025
0.79362453
0.81096361
0.82049319
0.82147897
0.81349732
0.79621611
0.76802779
0.73198527
0.69716931
0.67208505
0.66267277
0.67066975
0.69085091
0.71621
0.74237085
0.76514366
0.78171082
0.79111623
0.78991725
0.77566802
0.75146083
0.72268433
0.69800412
0.68780044
0.69497373
0.71504965
0.74128525
0.76532466
0.78315574
0.79876971
0.81529123
0.83120749
0.84254308
0.84096921
0.82070255
0.78606508
0.74529264
0.70704349
0.67963901
0.66407851
0.65661829
0.65630101
0.66205127
0.67277692
0.69059845
0.71361997
0.73537318
0.75191362
0.757983
0.74924368
0.72998598
0.70628491
0.68410007
0.6727669
0.67664374
0.69394187
0.72201075
0.7530432
0.77609629
0.7854868
0.77858109
0.75694158
0.73011267
0.70637069
0.68837909
0.6776795
0.67183678
0.66765385
0.66843175
0.67831894
0.69819094
0.72807365
0.76384467
0.79856124
0.82963524
0.85578511
0.87391794
0.88247422
0.87862442
0.85896088
0.82642629
0.78766967
0.74936342
0.71881979
0.69870088
0.68519622
0.67465449
0.66524212
0.65720119
0.65589971
0.66613896
0.68615438
0.71047122
0.73103244
0.74003617
0.73741456
0.72940553
0.72202022
0.72030863
0.72623517
0.73724471
0.75184165
0.7700098
0.78896997
0.80499163
0.81360983
0.80878394
0.78932228
0.7603245
0.72828714
0.70113071
0.68519572
0.68020349
0.68313555
0.69133338
0.70118223
0.71094661
0.72043608
0.72596402
0.7234225
0.71351396
0.70154075
0.69840865
0.71565094
0.75293104
0.79650479
0.82747657
0.83084103
0.80765615
0.77668126
0.75841594
0.76261074
0.78544232
0.81081099
0.82365768
0.82165945
0.80912179
0.79115452
0.77194312
0.74980403
0.72313946
0.6983557
0.68251312
0.67860203
0.68677179
0.69997304
0.70925256
0.71300136
0.71215661
0.70782219
0.70304678
0.69642072
0.68430494
0.66855722
0.65277635
0.64161446
0.64316899
0.66006165000000006
0.68766253
0.72137985
0.75365114
0.77764712
0.79451006
0.80596372
0.81169736
0.8145554
0.81642874
0.819663
0.83142967
0.85411656
0.88114381
0.90275931
0.90764477
0.8900825
0.85787279
0.82383259
0.79608061
0.77700443
0.76060716
0.73818783
0.71008636
0.68315677
0.66452396
0.66018804
0.66933404
0.68513648
0.70316038
0.7211608
0.73696612
0.75058001
0.7610158
0.76538696
0.76432162
0.75965313
0.75106641
0.73940237
0.72479409
0.70572074
0.68492837
0.66788357
0.65856055
0.66124494
0.67725476
0.70209676
0.73098624
0.75968984
0.78342595
0.80108193
0.81341058
0.81811017
0.81297343
0.79753126
0.77189806
0.7407606
0.7122012
0.6909987
0.67888432
0.67563554
0.67863812
0.68802423
0.70728363
0.73650053
0.77204707
0.80824851
0.83655406
0.8517261
0.85477715
0.84721684
0.83068782
0.80808811
0.78137616
0.75540702
0.7395604
0.74041893
0.75924381
0.7926481
0.83037195
0.86118157
0.87965244
0.88294577
0.87121661
0.84869266
0.8177672
0.78111479
0.7465099
0.72196845
0.71457136
0.73045016
0.76590932
0.80757759
0.84140348
0.85442204
0.84125286
0.80991871
0.77236275
0.73830069
0.71503091
0.70118249
0.69075488
0.68281711
0.67768679
0.6762436
0.68263937
0.69570815
0.70890813
0.71861718
0.72144735
0.71615953
0.7083375
0.70192252
0.69729044
0.69700148
0.70218875
0.71428461
0.73889034
0.77624763
0.81727969
0.85000117
0.86115752
0.84305996
0.80325551
0.7567348
0.71665647
0.69218171
0.68233282
0.67961067
0.68083985
0.68608674
0.69561779
0.71040786
0.72701481
0.7377066
0.73841421
0.72839509
0.70825547
0.68319201
0.6591319
0.63935788
0.62767642
0.62487753
0.62649329
0.62929227
0.63384028
0.64504154
0.67296508
0.72332054
0.78754957
0.84631503
0.87744557
0.86684941
0.82073159
0.76102787
0.70963244
0.67918587
0.66863724
0.66665976
0.66542239
0.66674633
0.67692672
0.70245955
0.74459045
0.79580438
0.84628217
0.88812398
0.9128912
0.914541
0.89219094
0.84824101
0.79176465
0.73763348
0.69736852
0.67636227
0.67436422
0.68482572
0.7012058
0.72155774
0.74427774
0.76767151
0.7905707
0.80817529
0.81596336
0.81443699
0.80513461
0.79107959
0.77670419
0.76140154
0.74214182
0.72117492
0.70538833
0.70648259
0.73771497
0.79930868
0.87441721
0.93804442
0.96538038
0.94621095
0.89339036
0.8292089
0.77277739
0.73562213
0.7157064
0.70545913
0.70394714
0.71219818
0.72986188
0.75232733
0.76928856
0.77255909
0.76300272
0.74584515
0.72665567
0.71047254
0.69979699
0.69965771
0.71831474
0.75517924
0.79587578
0.8194997
0.8107241
0.77485168
0.7371921
0.71980246
0.72302517
0.72894173
0.72083499
0.70732768
0.72200211
0.785708
0.87243843
