1.0238493
0.94240904
0.90165734
0.90479284
0.94144711
0.99335193
1.04446
1.0838137
1.1077972
1.1180351
1.1198201
1.1189513
1.1190381
1.1209821
1.123361
1.1258809
1.1284213
1.1315555
1.1350649
1.139415
1.1443599
1.1483893
1.1487922
1.1424545
1.1286512
1.1080991
1.0835836
1.0586588
1.0389098
1.0291553
1.0318965
1.0456648
1.0653303
1.0843118
1.095003
1.0913621
1.0696791
1.0331217
0.98892995
0.9471708
0.91695525
0.90601742
0.91805
0.95048596
0.99591601
1.0431532
1.084202
1.1116102
1.1215492
1.1131993
1.0910897
1.0620563
1.0328099
1.008589
0.99223205
0.98678132
0.99204036
1.0066021
1.0271458
1.0526867
1.0811808
1.1092353
1.1317148
1.1429691
1.13992
1.1201002
1.0843061
1.0357415
0.98453742
0.9414814
0.91640533
0.914961
0.93825076
0.98279154
1.0391693
1.0953894
1.1382868
1.1617996
1.163355
1.1458519
1.1155793
1.0822947
1.0558461
1.0423913
1.0436593
1.0560993
1.0755747
1.0950017
1.1076417
1.1076327
1.0940604
1.0692322
1.0371082
1.0022053
0.96830565
0.94082869
0.92236279
0.91427247
0.91584378
0.92828067
0.9516635
0.98461521
1.0236781
1.0639424
1.1013222
1.1304102
1.1468613
1.1469736
1.1332143
1.1095054
1.0812092
1.0531899
1.0300631
1.0158421
1.0111794
1.014605
1.0215745
1.0304195
1.0378647
1.040942
1.0363376
1.0229701
1.001587
0.97366095
0.94219074
0.91080822
0.88692983
0.87607897
0.88204826
0.90466174
0.94232807
0.99036104
1.0411544
1.0858501
1.1160338
1.1286036
1.1225505
1.1005621
1.0670356
1.0306252
0.99949049
0.97962968
0.97349086
0.98019042
0.99772479
1.02106
1.0445969
1.0619685
1.071995
1.0746755
1.0716972
1.0650013
1.0574488
1.0525319
1.0514184
1.053902
1.0570457
1.0607028
1.0624987
1.0597634
1.0489299
1.028494
0.99911739
0.96252034
0.92224926
0.88240064
0.85113999
0.83442403
0.83606217
0.85556131
0.89086175
0.93728005
0.98806088
1.0361038
1.0751654
1.1037684
1.1212697
1.1284285
1.1252535
1.1143647
1.0978375
1.0776746
1.056123
1.0366214
1.0250725
1.0255300999999999
1.039937
1.0654515
1.0989332
1.1334528
1.1607516
1.1727324
1.1649808
1.1386014
1.0977999
1.0498635
1.0017168
0.96384015
0.94293824
0.94258971
0.96172414
0.99724593
1.0440205
1.0940198
1.1381831
1.1670624
1.1770417
1.1668705
1.1399263
1.1026648
1.0659687
1.0408093
1.0344788
1.048434
1.0773305
1.1133212
1.1449176
1.1616332
1.1557361
1.1280846
1.085036
1.0366581
0.99356705
0.96463431
0.95653024
0.96948475
0.99905544
1.0362406
1.0745647
1.1075675
1.1309135
1.1422161
1.142304
1.1351209
1.1244755
1.1142241
1.1059439
1.1042062
1.110427
1.1244679
1.1436115
1.16517
1.1862958
1.2029552
1.2113128
1.2077359
1.1933878
1.1702175
1.1421851
1.1134262
1.0904678
1.0788902
1.0812873
1.0966215
1.1200701
1.1471931
1.1710567
1.1854691
1.185226
1.1710466
1.1464397
1.1167819
1.0875541
1.0636036
1.0499557
1.0478203
1.05599
1.0698568
1.0871
1.1040296
1.1169518
1.1220792
1.1174655
1.1040281
1.0836809
1.0602624
1.0373641
1.0225192
1.0200494
1.0312628
1.0525609
1.0782623
1.1013834
1.1141404
1.1109696
1.0894198
1.0551562
1.0161058
0.98198886
0.96042066
0.95810263
0.97716051
1.0140309
1.0607
1.1065833
1.1443576
1.1676312
1.1737562
1.1626973
1.140621
1.1151119
1.0933194
1.079997
1.0772509
1.0863474
1.1045917
1.1275882
1.1486993
1.1648648
1.1725177
1.1686782
1.1505586
1.117631
1.0729852
1.0213793
0.9702355
0.92684557
0.90252328
0.9039927
0.93279632
0.98299107
1.0442175
1.1036396
1.1480608
1.1684355
1.1616046
1.1352533
1.1009871
1.0720677
1.057905
1.064309
1.0903684
1.1287523
1.1688408
1.2001088
1.2181513
1.2219946
1.2149054
1.2011678
1.1879348
1.1801101
1.1793098
1.183617
1.1893007
1.1942031
1.1953238
1.1909134
1.1792439
1.1632689
1.1457905
1.1297789
1.1172525
1.1103587
1.1114047
1.1202935
1.135493
1.1524859
1.1702173
1.1856767
1.1963023
1.1994263
1.1949677
1.1850007
1.1718065
1.1579973
1.145024
1.1370438
1.1356676
1.14103
1.1503673
1.1618086
1.1728859
1.1804676
1.1818384
1.1752616
1.1633247
1.1486768
1.1347648
1.1236591
1.1193384
1.1237438
1.1365391
1.1548728
1.1745737
1.1927533
1.2048849
1.2068702
1.1941007
1.1674507
1.1288397
1.0822443
1.0326502
0.98696589
0.95347571
0.93782099
0.94289557
0.96629893
1.0062911
1.0564988
1.1089917
1.1549004
1.1884349
1.2073024
1.2116087
1.2042036
1.188863
1.1733674
1.1628748
1.1603039
1.1644422
1.1734268
1.183479
1.1893952
1.1862355
1.1705447
1.1443104
1.1107138
1.0748657
1.0411898
1.0165284
1.0055601
1.0101191
1.0287839
1.057919
1.0941134
1.1317634
1.1652823
1.1885219
1.2006249
1.2018767
1.1946027
1.1818993
1.1683959
1.1596695
1.1582554
1.1639685
1.1720246
1.179697
1.1818635
1.1743476
1.1543036
1.123323
1.0868338
1.0513454
1.0232709
1.0061371
1.0039871
1.0156211
1.0366861
1.059721
1.0794052
1.0921468
1.0964507
1.093429
1.0860592
1.0811839
1.0832239
1.0940468
1.1106482
1.1298234
1.1460095
1.1533201
1.1474043
1.1275636
1.0987748
1.0675894
1.0414833
1.0251528
1.0240884
1.0392352
1.0679596
1.104243
1.1417925
1.1761595
1.2030143
1.2198136
1.2240528
1.2192291
1.2082233
1.1946194
1.1809827
1.1708423
1.167351
1.1709779
1.1799502
1.1895872
1.1975438
1.1998146
1.1935942
1.1772149
1.153686
1.1285931
1.1082923
1.0983972
1.1018549
1.120808
1.1516461
1.1867687
1.2147645
1.227177
1.2181387
1.1867509
1.1378954
1.0821296
1.0347478
1.008772
1.0123266
1.0444512
1.1000317
1.166958
1.2306634
1.2776243
1.3002095
1.2988192
1.2787536
1.2488519
1.2167124
1.1917426
1.1778891
1.1751879
1.1795734
1.1870515
1.1942854
1.1976139
1.1940501
1.1803973
1.1578965
1.12728
1.0908126
1.0513258
1.0154777
0.99078919
0.98333041
0.99616575
1.0278456
1.0752387
1.1295988
1.1797729
1.2133348
1.223452
1.2078128
1.1696644
1.1170366
1.0616461
1.0180533
0.99670316
1.0025293
1.0318889
1.0784133
1.1303496
1.1748153
1.2007102
1.2029408
1.1841807
1.1516005
1.1154841
1.0842707
1.0680049
1.0701755
1.0892736
1.1186513
1.1509727
1.1794009
1.1976194
1.2016881
1.1896352
1.1659897
1.1359368
1.1059327
1.0811172
1.067535
1.0687915
1.0844005
1.1099765
1.1379833
1.1625796
1.177451
1.1790367
1.1663078
1.1447677
1.1222584
1.1068702
1.1043026
1.1167961
1.1442572
1.1811195
1.2191699
1.2481444
1.2630793
1.2612946
1.2439372
1.2148742
1.1808883
1.150568
1.1298568
1.1216129
1.1231501
1.1329472
1.1456414
1.1556127
1.1575384
1.1501205
1.1357725
1.1182833
1.1022504
1.090697
1.0884584
1.0963688
1.1127893
1.1329522
1.1532642
1.1702364
1.1806417
1.1823588
1.174555
1.160629
1.1436661
1.1271392
1.1129132
1.1044404
1.1031671
1.1084801
1.1177083
1.1275172
1.1364838
1.1424975
1.1445581
1.141447
1.1364981
1.1325771
1.1322499
1.1364411
1.1455938
1.1599052
1.1770324
1.1937541
1.2049729
1.2108843
1.2113227
1.207824
1.2020711
1.197489
1.1973391
1.2018424
1.2083725
1.211046
1.2066857
1.191598
1.1648932
1.1280796
1.0879817
1.0530233
1.0298903
1.0213755
1.025015
1.0367434
1.0484773
1.0523724
1.0421583
1.0192749
0.98950696
0.96140501
0.94328673
0.94107515
0.958175
0.9912906
1.0326336
1.0705645
1.0975204
1.1079158
1.1005583
1.0781793
1.0480264
1.0205123
1.0043022
1.0052953
1.0234545
1.0584984
1.1045187
1.1532255
1.1947927
1.222363
1.2327877
1.225732
1.2042234
1.1728104
1.1406556
1.11457
1.0991915
1.0948036
1.1009384
1.1149265
1.1321805
1.1477278
1.1572121
1.160884
1.1592337
1.1540166
1.1462035
1.1393005
1.1357204
1.1364697
1.1408246
1.147224
1.1556031
1.1642364
1.1712156
1.1732339
1.1706648
1.1637603
1.1536403
1.1416284
1.1304415
1.1241471
1.1248304
1.1327682
1.1442971
1.1578326
1.1689982
1.173639
1.1681324
1.1525821
1.130384
1.1059969
1.0843207
1.0684916
1.0634635
1.070353
1.0881227
1.1127018
1.1412086
1.1703581
1.1960311
1.2139621
1.2201946
1.2148603
1.1986489
1.1745043
1.1460412
1.1207003
1.1049565
1.1027163
1.1138135
1.1344688
1.1599981
1.1831385
1.1974536
1.1976134
1.1853308
1.1644534
1.1405204
1.1182818
1.1017238
1.0937036
1.0934557
1.0984533
1.1037827
1.1089753
1.1125526
1.113761
1.1112547
1.105305
1.0971056
1.0874902
1.0779147
1.0696409
1.0678138
1.0753219999999999
1.0931988
1.1184582
1.1473835
1.1744385
1.1930316
1.1976294
1.1852328
1.1591317
1.1243335
1.0875464
1.0539305
1.0298898
1.0186087
1.019974
1.0309078
1.0471389
1.0661803
1.0845361
1.0993997
1.1072301
1.1089049
1.1051239
1.0972502
1.0864651
1.0752301
1.0674755
1.0652728
1.0693518
1.0768732
1.0875787
1.0981579
1.1048922
1.1036589
1.0934534
1.0764202
1.0562266
1.038017
1.0261836
1.0272907
1.0434243
1.0728068
1.1085809
1.1434377
1.169794
1.1813184
1.1750794
1.1523182
1.1210452
1.0900025
1.0674885
1.0574597
1.0625901
1.0806754
1.105907
1.1307091
1.1486548
1.1580985
1.1591799
1.1544892
1.1462402
1.1397372
1.1379044
1.1416249
1.1492311
1.1588306
1.1698349
1.1809095
1.1912102
1.1983424
1.2040217
1.2077168
1.2082969
1.2032565
1.1918059
1.1750179
1.154703
1.1340563
1.1161106
1.1071136
1.1099862
1.1246645
1.1464675
1.1698745
1.1883251
1.1956756
1.1884999
1.1672854
1.139121
1.1122691
1.0949935
1.0915074
1.1046513
1.1319681
1.1667265
1.1997643
1.222695
1.2320649
1.2269645
1.2101396
1.1852986
1.1604692
1.1417396
1.132899
1.1341818
1.1441305
1.1609703
1.1808619
1.1998826
1.2129186
1.2199821
1.2203308
1.2141591
1.2014696
1.184326
1.1658511
1.1485671
1.1347198
1.1248055
1.1219284
1.1255405
1.1327411
1.1371687
1.1337382
1.1184462
1.0894652
1.0488354
1.0026005
0.962687
0.93989874
0.94207986
0.97003699
1.0207867
1.0851096
1.1503543
1.2037656
1.2363782
1.2466814
1.2370893
1.2135369
1.1816688
1.1500039
1.1242384
1.108107
1.103032
1.1099906
1.1296575
1.1588004
1.1907467
1.2139708
1.2203078
1.2020565
1.1572095
1.0905047
1.0157701
0.95208048
0.91690606
0.92133697
0.96534621
1.0418023
1.1338155
1.2215464
1.28666
1.3202181
1.3222519
1.2994605
1.2619179
1.2190138
1.1799095
1.1482052
1.1242461
1.1055627
1.0927035
1.0866845
1.0883933
1.0970857
1.1099842
1.1241715
1.1344814
1.1365056
1.1268039
1.1091562
1.0893372
1.0743602
1.0694291
1.0776661
1.0997849
1.1316389
1.1667834
1.1966767
1.218192
1.2288091
1.2284444
1.2178516
1.200281
1.1799129
1.1597884
1.1422841
1.1281279
1.1210406
1.1222345
1.1316573
1.1465149
1.1645382
1.1827954
1.1975866
1.2054283
1.2037425
1.194803
1.1809651
1.1656153
1.1506765
1.1403341
1.1365885
1.1390281
1.1448989
1.1506307
1.1548599
1.1558512
1.1533466000000001
1.1470465
1.1413406
1.1398388
1.1451657
1.1573275
1.174773
1.1950214
1.212858
1.2226324
1.2181253
1.1992896
1.1675314
1.1273435
1.0844223
1.0468032
1.0224138
1.0158061
1.0277714
1.0541577
1.0914951
1.1328215
1.1710755
1.1993629
1.2155979
1.2208255
1.2179037
1.2106734
1.202554
1.1986559
1.2006096
1.2077824
1.216291
1.2241033
1.2286988
1.2281426
1.2215385
1.2098778
1.1970906
1.1861061
1.1791105
1.1753574
1.1756745
1.1781368
1.17956
1.1757496
1.1640857
1.1448222
1.1190064
1.0894491
1.0584179
1.0326506
1.0163513
1.0120577
1.019051
1.036022
1.0608474
1.0898186
1.1192669
1.1452616
1.168479
1.188645
1.205509
1.2170866
1.223005
1.2231329
1.2173954
1.2064617
1.1916308
1.1774182
1.165886
1.1569258
1.1463023
1.1308186
1.1065399
1.0710784
1.0251449
0.97386331
0.92752937
0.89537023
0.88375325
0.89226083
0.91831359
0.9538401
0.98925306
1.0161488
1.031375
1.0380892
1.0416242
1.0477727
1.0581474
1.0747409
1.0939672
1.1103623
1.118181
1.1161025
1.1074818
1.0979087
1.0937264
1.0985973
1.1160959
1.1441416
1.1772314
1.206937
1.227582
1.2360509
1.2317885
1.2168114
1.1946321
1.1722959
1.1544778
1.1440331
1.1400849
1.1427911
1.1503605
1.1598462
1.1676478
1.1708835
1.1697857
1.1641246
1.1543336
1.1397396
1.1233214
1.1072406
1.0936319
1.083897
1.0798463
1.083997
1.0966287
1.1161851
1.1373756
1.157639
1.1724515
1.1783146
1.1727832
1.157571
1.1377705
1.1190091
1.1065047
1.1025694
1.1102591
1.1280026
1.1518201
1.1752385
1.194229
1.2064291
1.2108426
1.2079765
1.1992064
1.1895236
1.1821332
1.179319
1.180616
1.1870543
1.1977879
1.2105065
1.2220505
1.2296355
1.2314675
1.2257765
1.212337
1.1922592
1.170017
1.1494606
1.1335771
1.1234671
1.119275
1.1201159
1.1242332
1.1310259
1.1410669
1.1577605
1.1823002
1.2130214
1.2442063
1.2684487
1.2780834
1.2683135
1.2406257
1.2032495
1.170244
1.1536086
1.159232
1.1834771
1.215774
1.2415466
1.2491509
1.2360965
1.2112587
1.1919758
1.1936046
1.2213609
1.2639146
1.2961562
1.2843266
1.1990584
