0.89599579
0.88836618999999994
0.91956822
0.96440913
0.99559312
1.000078
0.98144389
0.95441513
0.93462485
0.93167373
0.94428392
0.96313577
0.97799729
0.98431468
0.9833435
0.97937631
0.97733994
0.98028699
0.98762342
0.99560594
1.001525
1.0046385
1.0056236
1.0046867
1.0035226
1.0033555
1.0046865
1.0061398
1.0082904
1.011249
1.0148376
1.0176393
1.0202847
1.023172
1.026095
1.0279449
1.0296093
1.0301475
1.0280085
1.0227111
1.0164848
1.0107331
1.0056123
1.0016527
0.99963736
0.99870543
0.99666493
0.99359243
0.99051595
0.98804484
0.98534683
0.983842
0.98412512
0.98585845
0.986919
0.98863179
0.99130742
0.99489035
0.99726305
1.0001239
1.0030567
1.005252
1.0049523
1.0041315
1.0032882
1.0023727
1.000784
1.0002749
1.0007158
1.0008851
0.99990421
0.9989316
0.99798737
0.99614304
0.99369058
0.99197411
0.99100866
0.98922484
0.98684915
0.98443922
0.98177798
0.97733502
0.9724893
0.96834743
0.9653861
0.96222637
0.96058604
0.96071336
0.9622433
0.96284061
0.96419432
0.96618018
0.96840628
0.96944981
0.97118276
0.97371563
0.97645908
0.97837026
0.98090405
0.98396463
0.98659693
0.98822748
0.99011627
0.99216862
0.99318428
0.99316846
0.99339884
0.99423719
0.99485301
0.99629666
0.99970531
1.0048451
1.0093578
1.0131028
1.0154141
1.0152951
1.010649
1.0035181
0.99534394
0.98735854
0.97861911
0.97174257
0.96683225
0.96316695
0.95870371
0.95486826
0.95162886
0.94854687
0.94484515
0.94223622
0.94079146
0.93963356
0.93824494
0.93805677
0.93935715
0.94143858
0.94462999
0.95011946
0.9576828
0.96545386
0.97320514
0.98098336
0.98807737
0.99247494
0.99514131
0.99692933
0.99823959
0.99773912
0.99735192
0.99757045
0.99823588
0.99709845
0.99608216
0.99533704
0.99484195
0.99351448
0.99360253
0.99520928
0.99727577
0.99785574
0.99749836
0.99543287
0.99060801
0.98303926
0.97519764
0.96850155
0.9630891
0.9595531
0.95877577
0.95995126
0.96077179
0.96091122
0.96092487
0.9612215
0.96126655
0.96308077
0.96786007
0.97542465
0.98311782
0.99095192
0.99775725
1.0024789
1.0029774
1.0019539
1.0005792
0.99949477
0.99764356
0.99678961
0.9966531
0.99645526
0.99543469
0.99586774
0.99843148
1.002334
1.0062123
1.0097934
1.0112599
1.0082398
1.0005881
0.99042255
0.97942452
0.96788862
0.95736705
0.94897149
0.94240595
0.93577664
0.93004495
0.92602315
0.92383983
0.92152877
0.91999323
0.91887848
0.91785046
0.91550013
0.91515504
0.91848762
0.92620478
0.93665124
0.95013091
0.96438436
0.97655333
0.98426318
0.98904144
0.99195773
0.99364064
0.99473852
0.9969128
0.99961543
1.0007446
0.99948454
0.99678287
0.99330704
0.98899127
0.98575113
0.98538066
0.98797148
0.99120588
0.99485322
0.99815361
1.0000999
0.99865569
0.99581324
0.99278504
0.99031531
0.98680695
0.98406059
0.98163061
0.97866762
0.97352686
0.96831814
0.96392168
0.96068665
0.95824324
0.95817841
0.96014285
0.96270518
0.96479298
0.96734284
0.9702583
0.97243178
0.97376186
0.97510533
0.97623125
0.97577756
0.9745619
0.97398549
0.97460825
0.97521695
0.97682767
0.97962156
0.98292599
0.98436716
0.98523371
0.98593138
0.98663277
0.98554351
0.98481304
0.984482
0.98410663
0.98208338
0.98029354
0.97886339
0.9771668
0.97397684
0.97056423
0.96671884
0.96164785
0.95529109
0.94971593
0.94571008
0.94273418
0.94092112
0.94113488
0.94306935
0.94528655
0.94835729
0.95318305
0.95953013
0.96519459
0.97014939
0.97398446
0.97624968
0.97572268
0.97528631
0.97686573
0.98139265
0.98672584
0.99349441
0.99979218
1.0036196
1.0029381
1.00037
0.99772881
0.99621405
0.99575246
0.99757527
1.0003112
1.0013825
0.99905867
0.99448278
0.98849515
0.98138078
0.9744163
0.96937417
0.9661725
0.96288892
0.95928088
0.95567584
0.95199033
0.94708339
0.94256567
0.93963717
0.9386674
0.93805259
0.93909829
0.9417926
0.94567821
0.94847554
0.95184517
0.95553785
0.95882418
0.95979351
0.95992767
0.95933628
0.95798937
0.95587279
0.95559686
0.95783144
0.96158303
0.96539564
0.96921507
0.97190702
0.97212162
0.97068537
0.97015486
0.97184149
0.97481048
0.9787009
0.98247474
0.98409591
0.98088396
0.97417458
0.96618618
0.95907685
0.95291218
0.94981249
0.94939919
0.95003779
0.9482496
0.9451516
0.94109184
0.93692767
0.93273542
0.93136952
0.93322026
0.93718613
0.94118817
0.94547842
0.94917477
0.95115185
0.95121622
0.95129599
0.95205443
0.95281076
0.95353947
0.95490925
0.9563737
0.95622836
0.9549189
0.95358688
0.95273739
0.95133483
0.95063671
0.95110474
0.952273
0.95186969
0.95101543
0.94987396
0.94840146
0.94473043
0.94103022
0.93749417
0.93389425
0.92887827
0.92443218
0.92086593
0.91781423
0.91438753
0.91208611
0.91087652
0.90994141
0.90889868
0.90921528
0.9110837
0.91352221
0.91639963
0.92044695
0.92528274
0.92933573
0.93298443
0.93707348
0.94166713
0.94528291
0.94878634
0.95244738
0.95582426
0.95687666
0.95699654
0.9567349
0.95654514
0.9552085
0.95536488
0.95753355
0.96141769
0.96512033
0.96958772
0.97391547
0.97666538
0.97629837
0.97419508
0.97064979
0.96539371
0.95859253
0.95216651
0.94665334
0.94138794
0.9365587
0.93321786
0.93122036
0.92907447
0.92699503
0.92562323
0.92499942
0.92396342
0.92389219
0.92567106
0.92925721
0.93251813
0.9360504
0.93917925
0.9410435
0.93946081
0.93675084
0.93390776
0.9317326
0.92971266
0.92998814
0.93239379
0.93566677
0.93798401
0.94013366
0.94179968
0.94225844
0.94145275
0.94121057
0.94192707
0.9426118
0.94300309
0.9436154
0.94380874
0.9418291
0.93808605
0.93370004
0.92924774
0.92394618
0.91940238
0.91652491
0.9152528
0.91358444
0.91259785
0.91233767
0.91267058
0.91185689
0.91215269
0.91398115
0.91718476
0.92013746
0.92399045
0.92791265
0.93033287
0.92946768
0.92657948
0.92222468
0.9168705
0.91174087
0.90976077
0.9118868
0.91689824
0.9235308
0.93096212
0.93735409
0.94028234
0.94019026000000006
0.938835
0.93758208
0.93610485
0.93594791
0.93749215
0.93997883
0.94087028
0.94123496
0.94150082
0.94204055
0.94134242
0.94156654
0.94263977
0.94381639
0.94316167
0.94217833
0.94107652
0.9397436
0.93774093
0.9369948
0.93773572
0.93909328
0.94032458
0.94242361
0.94522808
0.94766713
0.94984324
0.95297541
0.95717969
0.96115687
0.96516375
0.96961981
0.97402028
0.9764342
0.97753417
0.97785752
0.97760584
0.97553216
0.97366151
0.97284564
0.97338726
0.97349792
0.97504669
0.97782937
0.98106748
0.98271054
0.98398061
0.98451346
0.98347512
0.97979515
0.97524906
0.97030485
0.96466248
0.95831906
0.95303779
0.94914934
0.94575166
0.94287608999999994
0.94157215
0.94176561
0.94203601
0.94270021
0.94436692
0.94673686
0.94793968
0.94861393
0.94900239
0.94876831
0.945962
0.9421876
0.9382198
0.93474349
0.9306703
0.92890448
0.9300589
0.93377089
0.93791594
0.94344729
0.94965651
0.9556082
0.96046512
0.96641146
0.97404673
0.98258158
0.99080901
0.99879306
1.0050743
1.0074523
1.0056537
1.0014692
0.99623411
0.99009329
0.98464551
0.98115656
0.979367
0.97714882
0.97498182
0.97332514
0.97245702999999994
0.97122459
0.97169206
0.97446287
0.97925332
0.98345022
0.98811646
0.99250487
0.99579916
0.99650653
0.99682783
0.99753375
0.99873903
0.99983797
1.0023531
1.0059303
1.0091338
1.0108547
1.0120622
1.0128053
1.0123505
1.0111698
1.0107594
1.0112913
1.0112904
1.0108785
1.0104026
1.0093802
1.0059544
1.0012564
0.99630892
0.99170812
0.98632593
0.98228471
0.98016047
0.97966034
0.9781501
0.97683074
0.97505655
0.97213846
0.96674327
0.96135074
0.95701069
0.95411324
0.9523106
0.95331866
0.95682333
0.96129397
0.96543058
0.96983601
0.97396545
0.97639458
0.97703878
0.9771157
0.97694441
0.97571431
0.97460292
0.97504711
0.97737699
0.980061
0.98389747
0.98904652
0.99501869
0.99970269
1.0045184
1.0096491
1.0146524
1.01684
1.017474
1.0159787
1.0118609
1.0041514
0.99588282
0.98859056
0.98290345
0.97833394
0.97611074
0.9753192
0.97406058
0.97115446
0.96787438
0.96481249
0.96180786
0.95966509
0.95981385
0.96208597
0.96461161
0.9671295
0.96971474
0.97175761
0.97139127
0.96962745
0.96740416
0.96538123
0.96275558
0.96201253
0.96410215
0.96891339
0.97370116
0.97923838
0.98436162
0.9879847
0.98861835
0.98877514
0.98943601
0.99059567
0.99111693
0.9917179
0.99120702
0.98779719
0.98085428
0.97247524
0.96405179
0.955991
0.9493276
0.94535317
0.94356037
0.94183832
0.94001099
0.93862973
0.93789103
0.93683821
0.93702255
0.93926818
0.94335363
0.94701799
0.95106344
0.95517704
0.95886067
0.9600286
0.96082472
0.96167135
0.9626468
0.96260575
0.96354772
0.96554959
0.9678352
0.96904347
0.97031206
0.97131551
0.97100905
0.96887741
0.96638094
0.96371264
0.9599518
0.95522918
0.95071751
0.94651836
0.94150708
0.9364681
0.93245635
0.92950498
0.92597832
0.92267773
0.92007966
0.9183192
0.91620826
0.91589637
0.91819763
0.92298052
0.92760287
0.9327848
0.93744784
0.9407299
0.94157071
0.94284246
0.94592861
0.95103692
0.95692855
0.96385843
0.97011373
0.9734525
0.97294709
0.97065283
0.96805759
0.96554303
0.9639039
0.96411104
0.96534023
0.96529538
0.96393154
0.96220176
0.96067343
0.95844763
0.95684232
0.95624285
0.95601506
0.95375126
0.95062994
0.94712749
0.94363234
0.93866666
0.93455296
0.93152003
0.92923487
0.92616452
0.92407703
0.92314548
0.92289209
0.92230847
0.92280018
0.92436659
0.92635286
0.92863654
0.93294438
0.93954197
0.94720384
0.95528664
0.96390935
0.97216599
0.97821419
0.98254928
0.98635241
0.98995931
0.99189101
0.99285391
0.99295786
0.99188764
0.98816034
0.98422446
0.98170705
0.98163762
0.98242935
0.98562512
0.99018864
0.99449065
0.99604752
0.9962956
0.99550456
0.99351408
0.98957268
0.98520131
0.98025619
0.97387458
0.96588457
0.95832941
0.95217345
0.94715008999999994
0.94354735
0.94217163
0.94247847
0.94271476
0.94319403
0.94491393
0.94821531
0.95183331
0.95655637
0.96228011
0.96801453
0.97118025
0.97286793
0.97357615
0.97390578
0.97278992
0.9730289
0.97505968
0.9783729
0.98087076
0.98359824
0.98599684
0.98724416
0.98654627
0.98597832
0.98611387
0.9863908
0.98614725
0.98610482
0.98541271
0.98221709
0.97619693
0.96871121
0.96057306
0.95162162
0.94346681
0.93762127
0.93415089
0.93111366
0.92875781
0.92693069
0.92517142
0.92183587
0.91887903
0.91735357
0.9178822
0.91895881
0.92251439
0.92817707
0.93487027
0.9403084
0.94556416
0.9503216
0.95399333
0.95585437
0.95780157
0.96006352
0.96173722
0.96205156
0.96206688
0.96180638
0.96062765
0.95932447
0.95974879
0.96216988
0.96475426
0.96681116
0.96771926
0.96637847
0.96108348
0.95377785
0.94661085
0.94099346
0.93587327
0.93251511
0.9303983
0.92863434
0.92508545
0.9223163
0.92142662
0.92278832
0.92472137
0.92777688
0.93048147
0.93125625
0.92928829
0.92747456
0.92782442
0.93103073
0.93678623
0.9450814
0.95375117
0.95970109
0.96197137
0.96207801
0.96147997
0.96050519
0.96071173
0.96305832
0.96688318
0.96976523
0.97216909
0.9746485
0.9774129
0.97884239
0.98029823
0.98167598
0.98244747
0.98047645
0.9780914
0.97599748
0.97440528
0.97192358
0.96989935
0.9677209
0.96430304
0.95865863
0.9529638
0.94832267
0.94492626
0.94275547
0.94288723
0.94456613
0.94578212
0.94584021
0.9457097
0.94591315
0.94606142
0.94752602
0.95164812
0.95834629
0.96545074
0.9730013
0.98059311
0.98742753
0.99136347
0.99397724
0.99595713
0.99764223
0.99730152
0.99698937
0.99662679
0.99563053
0.99230912
0.98854343
0.98475031
0.98089056
0.97650338
0.97353797
0.97206878
0.97096084
0.9692284
0.967805
0.96656192
0.96461059
0.96239806
0.96150902
0.96221308
0.96308558
0.96410402
0.96538244
0.96628632
0.96509668
0.96314037
0.96180963
0.96208015
0.9630822
0.96660768
0.97259124
0.97992805
0.98532475
0.98951911
0.99190248
0.99221965
0.98975106
0.98744885
0.98641146
0.98656856
0.98674608
0.98785032
0.98908652
0.98907672
0.98736032
0.9858678
0.98540241
0.98544518
0.98605361
0.98783068
0.98996241
0.99036548
0.98917725
0.98732503
0.98510495
0.98120864
0.97668887
0.97198536
0.96689959
0.95974903
0.9525551
0.94644727
0.94210454
0.93792375
0.93578423
0.935274
0.93552172
0.93478467
0.93504948
0.93693778
0.94044941
0.94482572
0.95135393
0.95929391
0.96678778
0.97241808
0.97698486
0.98037065
0.98168373
0.98131833
0.98082515
0.98063576
0.97983451
0.97936588
0.98045465
0.9832819
0.98622014
0.98998043
0.99463951
0.99955895
1.0024233
1.0044733
1.0059273
1.0066756
1.004664
1.0018827
0.9984216
0.9941031
0.9877797
0.98178338
0.97676811
0.9726219
0.96855803
0.96614813
0.96537426
0.96538826
0.96574205
0.96789177
0.97187647
0.97631952
0.98055436
0.9848633
0.98852883
0.98983922
0.9894363
0.98877265
0.98859047
0.98789929
0.98795313
0.98918535
0.99114148
0.99162559
0.99203458
0.99285847
0.99431441
0.99456951
0.995625
0.99721412
0.99843417
0.99716477
0.99496652
0.99201934
0.988239
0.98334967
0.97977125
0.97813114
0.97780786
0.97815299
0.98016064
0.98340663
0.98644985
0.98914915
0.99269459
0.99725413
1.001568
1.0060295
1.0111765
1.0165009
1.0198819
1.0219369
1.023096
1.0233698
1.0211647
1.0183294
1.0155062
1.0128782
1.008673
1.0051866
1.0028181
1.0015861
1.0003084
1.0009727
1.0035862
1.0074868
1.0118
1.0160276
1.0185221
1.0181443
1.0158359
1.0138566
1.0133124
1.0136648
1.0138928
1.0122241
1.0072403
0.99977541
0.99453354
0.99598288
1.0051797
1.0180838
1.0286627
1.0302885
1.0209545
1.0055438
0.99570177
1.000203
1.0191242
1.0411952
1.0509494
1.0352347
0.99467815
0.94701361
0.92099669
0.93772314
0.9959084
1.0661963
1.100208
