0.76135261
0.81368894
0.8566142
0.86038499
0.83209987
0.79864613
0.782118
0.7833236
0.78710641
0.78254333
0.77118696
0.76150903
0.76125947
0.7696647
0.77760336
0.77731961
0.76684645
0.74894907
0.73084807
0.71934532
0.71617314
0.71994713
0.72742818
0.73460079
0.74086415
0.7476773
0.75342277
0.75619416
0.7526127
0.74110456
0.7290414
0.72636321
0.73725319
0.75978715
0.78413123
0.79747959
0.79553852
0.78183931
0.76247626
0.74522331
0.73444898
0.72974756
0.73175839
0.74009934
0.74961426
0.75450164
0.75009038
0.73512952
0.71709237
0.70647379
0.70708474
0.71587531
0.72530186
0.72839916
0.72715872
0.72910813
0.73663151
0.74515974
0.74596646
0.73266812
0.71106847
0.69577845
0.696327
0.71105379
0.72828015
0.73400458
0.7257602
0.71418724
0.71091463
0.72052619
0.73777651
0.75104368
0.75458892
0.75272375
0.75145811
0.75318072
0.75503003
0.75025743
0.73763411
0.72471904
0.71916742
0.7235372
0.73396854
0.74061745
0.7369339
0.72554906
0.7124931
0.7033436
0.70071423
0.70035015
0.69673498
0.68935636
0.67968571
0.67073309
0.66646143
0.66547975
0.66306533
0.65695747
0.64578141
0.63149098
0.62106648
0.61833442
0.62228692
0.63078695
0.63845359
0.64117459
0.64139627
0.64134485
0.64104945
0.64123456
0.63943422
0.63338427
0.62676389
0.62255996
0.62095546
0.62278309
0.62545668
0.62611422
0.6280427
0.63397755
0.64361855
0.65716811
0.67082897
0.67965564999999994
0.68506017
0.68922339
0.69295413
0.69920832
0.70700302
0.71246045
0.71586879
0.71723871
0.71571781
0.71414411
0.71358787
0.71273064
0.7131917
0.71492712
0.71567412
0.71627984
0.71650086
0.71454623
0.71236293
0.71126597
0.71053755
0.71179532
0.71463094
0.71563454
0.71421086
0.71027388
0.70381145
0.69878961
0.69803455
0.70034353
0.70497251
0.70992922
0.71254939
0.71484999
0.71933655
0.72538686
0.7324977
0.73818132
0.73857233
0.73483806
0.73074188
0.7289121
0.7325341
0.74139694
0.75039945
0.75634746
0.75876966
0.75869871
0.76094562
0.7686719
0.77819347
0.78346105
0.77885768
0.76186195
0.73884549
0.72074762
0.71405299
0.71967298
0.7325034
0.74355393
0.74863571
0.7492626
0.74708704
0.74370214
0.73964398
0.73387506
0.72928959
0.73164963
0.74244042
0.75889823
0.77547797
0.78538962
0.78784888
0.78828083
0.7902627
0.79380034
0.79593227
0.79119577
0.77920581
0.76685758
0.76080409
0.76467297
0.7775434
0.79177167
0.80008277
0.80109285
0.79569775
0.78682528
0.7783452
0.76952503
0.75842739
0.746972
0.73814656
0.73653836
0.74686152
0.76596388
0.78450075
0.79387465
0.78850887
0.77165179
0.75646708
0.75423094
0.76793014
0.79245586
0.81400273
0.81994534
0.80903341
0.78737892
0.76498504
0.75272031
0.75314975
0.76189577
0.77477677
0.78617779
0.79199893
0.79436948
0.79506988
0.79453447
0.7950074
0.79396682
0.78577845
0.76944739
0.74587624
0.71921752
0.69964658
0.69308187
0.69770742
0.70963312
0.72080798
0.72398297
0.72113077
0.71584663
0.70972763
0.70593172
0.70310946
0.69763514
0.69203104
0.68881768
0.68863169
0.6945685
0.70592615
0.71903827
0.73421392
0.75053315
0.7645677
0.77547633
0.78052921
0.77626683
0.76571016
0.75342755
0.74302136
0.74004416
0.74531921
0.75393969
0.76251885
0.76783978
0.76780747
0.76614154
0.76666039
0.76954197
0.77517195
0.78173749
0.78591076
0.78897817
0.79309703
0.79770084
0.80252643
0.80485316
0.79977495
0.78710667
0.77041829
0.75441784
0.74610121
0.7486972
0.75779972
0.76747372
0.77283946
0.77213577
0.77091402
0.77522196
0.78357843
0.78961255
0.78566625
0.76832961
0.74572193
0.73124288
0.73124684
0.74292479
0.75680565
0.76389531
0.76627307
0.77335324
0.78859073
0.80551417
0.81076696
0.79350341
0.75902556
0.72660266
0.71292579
0.72219687
0.7443612
0.76216115
0.76726042
0.76479175
0.76246894
0.76320837
0.7630027
0.7539816
0.73618109
0.72047101
0.71698595
0.72816403
0.74775473
0.76364149
0.76974103
0.77066849
0.77241344
0.77679698
0.78093056
0.77812711
0.76699211
0.75535255
0.75082696
0.75575556
0.76731609
0.77763007
0.78226205
0.78503295
0.78978874
0.79648285
0.80225754
0.80090489
0.7904061
0.77866788
0.77511316
0.78482861
0.80672326
0.82945701
0.83903433
0.8300339
0.80466119
0.77203128
0.74619991
0.73438252
0.73448521
0.74136109
0.74683076
0.74545627
0.74073847
0.73638533
0.73253023
0.7290178
0.72219179
0.7095934
0.6973209
0.69140444
0.6930431
0.70200239
0.71273979
0.71904454
0.72275117
0.72535506
0.72427688
0.71893847
0.70811692
0.69428614
0.68883848
0.69898167
0.72031461
0.7431212
0.75517586
0.7519237
0.74499787
0.74787346
0.76302209
0.7829011
0.79256439
0.78259253
0.7622273
0.74898117
0.75382957
0.77650949
0.80323644
0.81773859
0.81781783
0.81236391
0.81125111
0.82039333
0.83493876
0.84328717
0.84034811
0.82811815
0.81166122
0.79860074
0.79210973
0.78939981
0.78910942
0.79079305
0.79332491
0.79832531
0.80594387
0.81211006
0.81431552
0.8117957
0.80530528
0.80063043
0.80228834
0.80698123
0.80873998
0.80328652
0.79230696
0.78766608
0.80083878
0.82896191
0.85667978
0.86591323
0.84942974
0.82162809
0.80674595
0.81575012
0.83882427
0.85316958
0.84181519
0.81303031
0.79415394
0.80568255
0.84459231
0.88475394
0.89507399
0.86724067
0.82294695
0.79431985
0.80196711
0.84108814
0.88404404
0.90386788
0.89318484
0.86385371
0.8381053
0.83279849
0.84511836
0.85858386
0.85815546
0.83924812
0.81392541
0.80340778
0.8179222
0.84900362
0.87529493
0.87396921
0.83930258
0.7890225
0.7482499
0.73438908
0.74988898
0.78155918
0.81441339
0.84268189
0.8637532
0.87379674
0.86874639
0.84489305
0.80823261
0.7782265
0.7725209
0.79580384
0.83950467
0.88386798
0.91215171
0.92215825
0.91739568
0.9007043
0.87512841
0.84243153
0.80961732
0.79206921
0.79801037
0.82000514
0.8413653
0.84323452
0.81977932
0.78662356
0.76330566
0.75793519
0.76581361
0.77199209
0.76645799
0.75722368
0.75785871
0.77378228
0.80103189
0.82531744
0.83513376
0.83581749
0.83808903
0.84611961
0.85587739
0.85365445
0.82851843
0.78827847
0.75125911
0.73409812
0.7455693
0.77682366
0.8081482
0.82608938
0.82546001
0.808934
0.78715301
0.76791935
0.7527071
0.74297277
0.73782029
0.73535723
0.73833778
0.74856749
0.76372098
0.78130807
0.79533301
0.79786843
0.78754763
0.76829781
0.74714892
0.73528324
0.73892974
0.75436601
0.77411893
0.7889838
0.79235877
0.7872256
0.77982597
0.77246813
0.7651646
0.75552863
0.741756
0.72925892
0.72495669
0.72892432
0.73627693
0.73980491
0.73589806
0.73210617
0.73949149
0.75928825
0.78142195
0.79006131
0.77543734
0.74680366
0.72623688
0.72946139
0.75590539
0.78880104
0.80665151
0.80205944
0.78439481
0.76625768
0.75432859
0.74655305
0.73674074
0.72679457
0.72650501
0.7404247
0.76247249
0.77896293
0.7776113
0.7613901
0.74754821
0.74963926
0.76663354
0.7838991
0.7832261
0.76101839
0.7331469
0.71942689
0.72965056
0.75822475
0.78702429
0.80174942
0.80275681
0.79858859
0.7986494
0.80782175
0.82140269
0.831972
0.83661648
0.83397818
0.82454734
0.81173835
0.79698909
0.78257304
0.77520639
0.77993659
0.79803644
0.82669604
0.85303332
0.86012123
0.8402692
0.79927914
0.75775358
0.7423222
0.76202661
0.79990296
0.82719419
0.82197651
0.78873328
0.75853897
0.75830449
0.78630441
0.81524972
0.81227829
0.76995337
0.71850249
0.69652673
0.7177845
0.76332626
0.79492678
0.78955804
0.762643
0.74695825
0.76067867
0.79400977
0.81446195
0.79744303
0.75341947
0.714252
0.70545792
0.7304064
0.76607605
0.78504165
0.78162634
0.76745757
0.75608298
0.75347349
0.75168204
0.73993723
0.72109618
0.70580708
0.70191635
0.71105922
0.72495594
0.73357168
0.73797449
0.74434979
0.75534074
0.76899099
0.77654503
0.76937186
0.75090639
0.73230679
0.7241653
0.73309003
0.7549065
0.77686134
0.78964205
0.78942557
0.77753221
0.76186657
0.74925783
0.74049686
0.73486204
0.72998435
0.72320382
0.71705503
0.71513751
0.71749719
0.72345236
0.73068161
0.73597839
0.74072239
0.74770594
0.75581391
0.76205504
0.76185344
0.75121149
0.73356796
0.71734569
0.70878537
0.71074983
0.72039716
0.72994178
0.73509671
0.73703802
0.73834364
0.74264167
0.75099221
0.7585666
0.76049327
0.75497678
0.7421857
0.72686541
0.71574751
0.71123116
0.71276051
0.71809014
0.72227879
0.72267449
0.72029606
0.71524292
0.70790699
0.69964983
0.69012867
0.68075056
0.67542297
0.67526302
0.67950616
0.68701785
0.69429841
0.69982572
0.70639684
0.7156672
0.72770663
0.74166614
0.75242273
0.75506636
0.74998131
0.73961155
0.72884302
0.7244427
0.72764685
0.7350529
0.74359661
0.74914355
0.75006063
0.75001678
0.75029329
0.74859328
0.74329799
0.73157168
0.71355308
0.69658209
0.68664912
0.68497767
0.6906807
0.69796023
0.70117825
0.70215767
0.70406666
0.70840089
0.7168162
0.72578695
0.72965679
0.72849602
0.72367198
0.71700345
0.7138164
0.71594712
0.72193554
0.73301169
0.74780344
0.76261091
0.77737903
0.79037178
0.79862613
0.80427365
0.80812606
0.80906028
0.80953066
0.80965759
0.80740579
0.80461581
0.80176858
0.79766345
0.79472882
0.79358902
0.79205628
0.79067196
0.78833167
0.78218188
0.77358302
0.76354951
0.75158045
0.74057927
0.73247096
0.72715804
0.72717227
0.73265594
0.7396719
0.74625647
0.75065062
0.75158504
0.75282798
0.757156
0.76243749
0.76618313
0.76477863
0.75576571
0.74410105
0.73667197
0.73645083
0.74431436
0.7568766
0.76826272
0.77771991
0.7868606
0.79493441
0.80067863
0.80052006
0.790024
0.77179528
0.75385192
0.74368337
0.74728497
0.76442127
0.78673902
0.8054628
0.81440554
0.80964726
0.79340351
0.77180502
0.7501595
0.73424187
0.72732428
0.72606851
0.72554152
0.72278683
0.71751889
0.71539398
0.72302856
0.73878649
0.75426569
0.75988666
0.75062331
0.73345641
0.72295322
0.72724331
0.74367944
0.76245412
0.77375841
0.77887947
0.788521
0.80770956
0.82951088
0.83958458
0.82625096
0.79474318
0.76656073
0.75998845
0.7767158
0.80178023
0.81313191
0.8013273
0.77769788
0.75963681
0.75616654
0.76286327
0.76421322
0.74959935
0.72459818
0.70265242000000006
0.69485022
0.70405547
0.72072984
0.732625
0.73626135
0.73409937
0.73143903
0.73380068
0.73898159
0.74016332
0.73451749
0.72249741
0.70934567
0.7049893
0.71297454
0.72857777
0.74585115
0.75884494
0.76743756
0.77971587
0.79880635
0.81715648
0.82397584
0.81009288
0.77840731
0.74872492
0.73923677
0.75217073
0.77589574
0.79001221
0.78214475
0.76159406
0.74579508
0.74409366
0.75410129
0.76032874
0.74848117
0.7225913
0.69730037
0.6853074
0.69175649
0.707182
0.71593223
0.71226433
0.69936121
0.68484755
0.67869709
0.68399437
0.69692362
0.71546972
0.7371964
0.7585675
0.77905176
0.79582826
0.80387455
0.80331889
0.79637892
0.78608414
0.77928312
0.7798516
0.78552042
0.79350625
0.79980901
0.80127027
0.80123752
0.80367738
0.8076242
0.81012177
0.80546431
0.7883994
0.76228182
0.73571945
0.71577005
0.70742373
0.70963917
0.71546958
0.72061471
0.72427778
0.72662014
0.73053306
0.73789045
0.74656801
0.75536067
0.76357048
0.76877243
0.77057566
0.76915125
0.76311861
0.75410378
0.7455764
0.73909881
0.73685414
0.74033153
0.74774639
0.75807109
0.77054124
0.78162124
0.78951433
0.79582181
0.80311864
0.81627962
0.83793235
0.86137966
0.87502259
0.87005502
0.84545096
0.81312034
0.79172804
0.79086423
0.80574161
0.82157747
0.82235681
0.80504909
0.78235257
0.76870939
0.77002231
0.78053907
0.78577817
0.77674785
0.75841605
0.7418093
0.73649522
0.74583298
0.76344492
0.78088796
0.79463129
0.80137927
0.79778766
0.78370466
0.76133158
0.73910462
0.73059597
0.74056376
0.76071332
0.77725147000000006
0.7780371
0.76431807
0.75266225
0.75631542
0.77355372
0.79103504
0.79167839
0.77104842
0.74501427
0.73210703
0.73811093
0.75480604
0.76485411
0.75888369
0.74710216
0.74466547
0.75650182
0.77508962
0.78347997
0.77178041
0.75044083
0.73707703
0.74096336
0.75928847
0.77683926
0.78056189
0.77457402
0.76989055
0.77217554
0.78009579
0.7837291
0.7758136
0.76409727
0.76001603
0.76702682
0.78000619
0.78558581
0.77437718
0.75412306
0.73914326
0.73736465
0.74773854
0.7587245
0.75881117
0.75016347
0.74126576
0.73657534
0.73569657
0.73219676
0.72167001
0.71184129
0.71307771
0.72693431
0.74644908
0.75845639
0.75431251
0.74159486
0.73470965
0.74049972
0.75477809
0.76329307
0.7536807
0.73055861
0.71049215
0.70791941
0.72717956
0.75759379
0.78098491
0.78858755
0.78414465
0.77753281
0.77914593
0.79069381
0.80352745
0.80898788
0.8032264
0.78773336
0.77115814
0.76289397
0.76618194
0.77995895
0.79859023
0.81239428
0.81528663
0.80677356
0.78933131
0.76936536
0.75274288
0.73957941
0.72827582
0.71799123
0.70818097
0.70211359
0.7042599
0.71392372
0.72700639
0.73806475
0.74101856
0.73529632
0.72638226
0.71968036
0.71935279
0.72632932
0.73550784
0.74193399
0.74529847
0.74750956
0.75318113
0.76650022
0.7841249
0.79817995
0.80215642
0.79259139
0.77401538
0.75803861
0.7525684
0.75846178
0.77121413
0.78127797
0.78225424
0.77618434
0.76660968
0.75571637
0.7447718
0.73151017
0.71524717
0.70141583
0.6941097
0.69351281
0.6982619
0.70361657
0.70679722
0.711354
0.7187717
0.72576615
0.72847318
0.72272398
0.71013455
0.70142488
0.70452573
0.71848812
0.73741049
0.75204705
0.75852238
0.76430651
0.77545457
0.78904469
0.79744022
0.7913662
0.77061277
0.75087122
0.74814518
0.76672517
0.79595952
0.81597187
0.81508161
0.7999414
0.78498956
0.77890849
0.77866182
0.77245146
0.7548044
0.73482833
0.72429545
0.72502935
0.7276708
0.72042198
0.70566197
0.70245867
0.72455666
0.76208399
0.78620888
0.77301011
0.7321373
0.70676155
0.73241184
0.79549165
