0.95732473
0.95538381000000006
0.99132382
1.0349639
1.0582906
1.0516997
1.0242745
0.99421993
0.97734549
0.97904715
0.9926813
1.0051067
1.0074102
0.99867669
0.98443657
0.97046446
0.96171294
0.95787591
0.95508824
0.94852615
0.93783213
0.92510832
0.91293896
0.90247149
0.89429792
0.88746187
0.88050501
0.87374009
0.86969392
0.87075934
0.87691707
0.88732307
0.90005677
0.91286102
0.92247798
0.93108921
0.93991174
0.94986756
0.96057858
0.97355797
0.98756309
0.99989888
1.0087124
1.0148742
1.0188797
1.0204678
1.0212108
1.0227322
1.0249663
1.0255538
1.025008
1.0232891
1.0201524
1.0136425
1.0062187
0.99825175
0.98928514
0.97782486
0.96532187
0.95176898
0.93665189
0.92045761
0.90591995
0.89475911
0.88726748
0.88466873
0.88770861
0.89526203
0.90402499
0.91330364
0.9223577
0.93097024
0.93813252
0.94720116
0.95947989
0.9747924
0.99099313
1.0077325
1.0227233
1.033258
1.0383196
1.039948
1.0397643
1.038206
1.0370007
1.0375045
1.0392794
1.0397566
1.039578
1.0390227
1.0381754
1.0351935
1.0323734
1.0295604
1.0256389
1.0185754
1.0095701
0.99858078
0.98514307
0.96968793
0.95462328
0.94099623
0.92828448
0.91723401
0.90886499
0.9031915
0.8986787
0.89662538
0.89768776
0.901889
0.9071987
0.91513686
0.92517281
0.93623568
0.94676827
0.95816698
0.97033165
0.98219198
0.99307047
1.0037586
1.0136495
1.0209689
1.0260607
1.0300289
1.0331705
1.0340699
1.034222
1.0341179
1.0335485
1.0303158
1.026737
1.0232634
1.0198521
1.0156049
1.0124427
1.010181
1.0073172
1.0026748
0.99695251
0.98977417
0.97980834000000006
0.96775198
0.95505488
0.94228109
0.92831748
0.91474942
0.90250562
0.89212011
0.88249063
0.87644091
0.87486158
0.87771875
0.88369445
0.89354376
0.90598477
0.91871762
0.93023992
0.94122612
0.95164299
0.96056018
0.96894151
0.97802006
0.98768811
0.99576417
1.0029804
1.0093438
1.0145369
1.0165314
1.0179762
1.0195802
1.0213467
1.0221646
1.0236181
1.0251437
1.0249355
1.0216994
1.0162428
1.0084912
0.99754454
0.9846248
0.97156555
0.95906196
0.94584314
0.93323294
0.92177825
0.91164601
0.9014597
0.89394003
0.89000217
0.88973396
0.89202188
0.89790601
0.90666704
0.91677766
0.92746929
0.93983106
0.9538138
0.96791908
0.9819569
0.9958753
1.0086734
1.0180335
1.0251432
1.0309479
1.0360526
1.0388934
1.0417103
1.0442116
1.0452128
1.0428028
1.0385311
1.0327419
1.0252319
1.0165104
1.008778
1.0024796
0.99621784
0.98995103
0.98390671
0.9773229
0.96798412
0.95693487
0.94488206
0.93229749
0.91799227
0.90478294
0.89364928
0.8849799
0.87834001
0.87578813
0.87757887
0.8827331
0.89037056
0.90091117
0.91340553
0.92568909
0.93750976
0.9493876
0.96120568
0.97135068
0.98122508
0.99131634
1.0013256
1.0087455
1.0153154
1.0207835
1.0244892
1.0252316
1.0251187
1.0245594
1.0228873
1.0197919
1.016613
1.0131808
1.0079233
1.0011151
0.99366568
0.98557672
0.97517218
0.96380694
0.95218988
0.94060797
0.92758205
0.91589096
0.90649262
0.89971003
0.89487681
0.89376434
0.89632016
0.90142781
0.90831034
0.91771589
0.9291387
0.94077631
0.95235763
0.96405684
0.97533442
0.9843939
0.99255493
1.0005442
1.0084988
1.0144403
1.0202288
1.0256021
1.0297801
1.0314865
1.0326828
1.0337653
1.0341246
1.0335092
1.0332251
1.0330842
1.0315423
1.028968
1.0263539
1.0236811
1.0190221
1.0132186
1.0061886
0.99727952
0.98411794
0.96898359
0.95283201
0.9365272
0.92032838
0.90702665
0.89732763
0.89043497
0.88550675
0.88306896
0.88256908
0.88261485
0.88385423
0.88760421
0.89425724
0.90232492
0.91263482
0.92471313
0.9372192
0.94696467
0.95529132
0.96223804
0.96795864
0.97230696
0.97808745
0.98588075
0.99454175
1.0028197
1.0109965
1.0182459
1.022995
1.026114
1.0291982
1.0324681
1.0335691
1.0323992
1.0277078
1.0180511
1.0010447
0.98006234
0.95762652
0.93608723
0.91650357
0.90187049
0.89230529
0.88606414
0.88149847
0.87899411
0.87825617
0.87825623
0.87977702
0.88401612
0.8910121
0.89896385
0.90854492
0.91964562
0.93162754
0.94206734
0.95246733
0.9625512
0.97163326
0.97851238
0.98498963
0.99135793
0.99701204
1.0018303
1.0073005
1.0135
1.0190942
1.0244222
1.0301521
1.0358687
1.0394621
1.041973
1.0438874
1.0454038
1.0449292
1.0449914
1.0456603
1.0457815
1.0428482
1.0370229
1.0272022
1.012268
0.99267641
0.97150604
0.9510891
0.93234547
0.91700903
0.90633801
0.89997747
0.89571517
0.89408416
0.89519388
0.89883554
0.90293102
0.90910241
0.91681811
0.92481396
0.93114816
0.93706711
0.94254812
0.94691753
0.95013353
0.95382201
0.95803975
0.96125386
0.96364654
0.96603472
0.96852569
0.96975856
0.97154032
0.97462171
0.97860396
0.98042624
0.98090864
0.97884301
0.97302463
0.96245536
0.95005225
0.93747317
0.92533249
0.91422264
0.90573326
0.89963636
0.89443445
0.89062209
0.88954095
0.89178798
0.89621472
0.9038036
0.91424016
0.92631751
0.93704533
0.94753555
0.95753601
0.96658995
0.97366359
0.98053917
0.98738034
0.9934058
0.99834443
1.0036831
1.0094848
1.0141719
1.0175603
1.0198159
1.0202218
1.0167085
1.0107954
1.0038541
0.99699032
0.98916624
0.98313069
0.97894555
0.97540961
0.97011488
0.96369082
0.95553544
0.94480122
0.93179713
0.91904382
0.90781528
0.89775324
0.88957692
0.88409624
0.88111285
0.8790852
0.87952878
0.88349751
0.89140018
0.90136737
0.91470162
0.93034024
0.94651954
0.9610331
0.97494399
0.98812501
0.99971864
1.0093475
1.018175
1.0259937
1.0314084
1.0350509
1.0382062
1.0411436
1.0421761
1.0423181
1.0416484
1.0398413
1.0350354
1.0299927
1.0256227
1.0219594
1.017663
1.0137058
1.0091215
1.0022193
0.99237085
0.98129946
0.96975517
0.95710355
0.9439748
0.93125229
0.91903522
0.9063759
0.89561512
0.888718
0.88681546
0.88836247
0.89445936
0.90359063
0.91352411
0.92183146
0.92967131
0.93735825
0.9445802
0.9513616
0.95894873
0.96683248
0.97302429
0.97752363
0.98115392
0.98404611
0.98470135
0.98463003
0.98438271
0.9838457
0.98095583
0.97825587
0.97644486
0.97567626
0.97508138
0.97636266
0.97883141
0.9802611
0.97873741
0.97446454
0.96704479
0.95569556
0.94216192
0.92904636
0.91773474
0.90729082
0.89891974
0.89280924
0.88878706
0.88535795
0.88541501
0.89008571
0.8993403
0.91134767
0.92593232
0.94089029
0.95351812
0.96269666
0.97017731
0.97727786
0.98407944
0.991667
1.0005909
1.0097498
1.0162907
1.0207881
1.0237968
1.0258665
1.0257067
1.0259254
1.0267339
1.0274597
1.0266046
1.0257664
1.025001
1.0233925
1.020384
1.0170609
1.0132265
1.0075866
1.000816
0.99418624
0.98783411
0.97990099
0.97097722
0.96095071
0.94961188
0.93565826
0.92235577
0.91146471
0.90388446
0.89897048
0.89799359
0.9001163
0.90354525
0.90739738
0.91309071
0.92103539
0.93012636
0.94041957
0.95186172
0.96317924
0.97165594
0.97817408
0.98345563
0.98797304
0.99012086
0.99223104
0.99428486
0.99561581
0.99500341
0.99445297
0.99428149
0.99358951
0.99158329
0.98884939
0.98464812
0.97739968
0.96800876
0.95845386
0.94998443
0.94203019
0.93642078
0.93374451
0.93383213
0.93479677
0.93878979
0.94604305
0.95585574
0.96616916
0.97688052
0.9860418
0.99115496
0.991129
0.9877076
0.98257124
0.97676767
0.97282541
0.97288788
0.97697545
0.98231299
0.98825445
0.99329683
0.99588705
0.99342397
0.98841667
0.98210536
0.97540155
0.96824923
0.9630808
0.96005991
0.95792731
0.95568573
0.9540478
0.95241103
0.94888368
0.94339101
0.9365316
0.9282543
0.91728719
0.90566374
0.89493796
0.88604512
0.87768328
0.87206045
0.86913625
0.86819846
0.86795123
0.87007841
0.87478405
0.88129109
0.88907823
0.8988797
0.90986105
0.91989555
0.92880511
0.93724561
0.94533514
0.95181124
0.95837432
0.96578099
0.97388515
0.9801894
0.98628088
0.99179228
0.99600172
0.9976839
0.99886201
0.99990318
1.0000448
0.99876146
0.99717502
0.99513613
0.99135715
0.98648021
0.98176996
0.97739736
0.97153032
0.96487856
0.95735355
0.94854893
0.93667302
0.92456943
0.91374327
0.90521332
0.8988093
0.89640367
0.89761806
0.90074948
0.90451072
0.90958977
0.91606108
0.92328477
0.93238047
0.94463004
0.95983076
0.97551177
0.99141477
1.0063149
1.0186579
1.0255766
1.0290373
1.0297741
1.0283779
1.0247563
1.0215233
1.0191918
1.0169123
1.0141095
1.0119279
1.0102388
1.0076771
1.0047385
1.0024847
1.001001
0.99861041
0.99644018
0.99461485
0.99237558
0.98676581
0.97899012
0.96872122
0.9557434
0.93979629
0.92408402
0.91032018
0.89890278
0.88995206
0.88458859
0.88239502
0.88185928
0.88345557
0.88838751
0.89690226
0.90723382
0.9197214
0.93341438
0.94676233
0.95681475
0.96540242
0.97299488
0.97974539
0.98494662
0.9904252
0.99596713
1.0003297
1.0029835
1.0053546
1.007517
1.0079861
1.0068541
1.0048073
1.0020893
0.99803476
0.99554177
0.99656597
1.0013964
1.0066947
1.0118083
1.0135802
1.0090992
0.99657466
0.97917718
0.9598366
0.94073898
0.9235502
0.9101292
0.90000115
0.89120155
0.88380275
0.87906571
0.8777934
0.87905684
0.88385591
0.8917309
0.90139268
0.91005838
0.9194423
0.92994165
0.94148674
0.95288232
0.96503793
0.97674141
0.98589747
0.99152498
0.99511616
0.99742962
0.99801301
0.9978384
0.99781245
0.99747979
0.99466049
0.99047791
0.98568508
0.98069226
0.97385879
0.96748299
0.96152699
0.95518083
0.94691414
0.93838769
0.92979657
0.92056764
0.91064429
0.90160404
0.89366665
0.88580431
0.87861515
0.87323127
0.86996891
0.86764051
0.86758487
0.87027121
0.87542034
0.88076817
0.88768787
0.89576608
0.90419687
0.91170011
0.91994933
0.92911441
0.93837852
0.94727887
0.95685892
0.96673851
0.97520464
0.98237612
0.98893912
0.99465424
0.99761582
0.9989422
0.99911782
0.99827337
0.99480493
0.99128739
0.98812138
0.98469357
0.97915546
0.97222119
0.96313194
0.95084401
0.93564761
0.92020611
0.906228
0.89393821
0.88443608
0.87850317
0.87557817
0.87359766
0.87337371
0.87537593
0.87969174000000006
0.88457354
0.89149973
0.89998225
0.90906764
0.9174525
0.92685638
0.93754352
0.94856569
0.95888486
0.96859665
0.9765616
0.98094135
0.98243248
0.98279906
0.98291318
0.98147339
0.97936332
0.97629204
0.97168212
0.96381578
0.95591638
0.94934922
0.94417437
0.9385108
0.93256959
0.92504216
0.91489102
0.90310534
0.893172
0.88662233
0.88179726
0.87657536
0.86856387
0.85586129
0.8381545
0.82105164
0.81100329
0.81256894
0.82469161
0.84546566
0.86826972
0.88608292
0.89428165
0.89524757
0.89323739
0.89250176
0.89599692
0.90507121
0.91710762
0.92738716
0.93410955
0.93820657
0.94162574
0.94523598
0.95175921
0.96126444
0.97163469
0.97831345
0.98148766
0.98084428
0.9769155
0.97025903
0.96419877
0.95972496
0.9559806
0.95182844
0.94748847
0.94205549
0.93383995
0.92332797
0.91205892
0.9010886
0.89007337
0.88106389
0.87501624
0.87185124
0.86937362
0.86873681
0.86954417
0.87116679
0.87260271
0.87558928
0.88034021
0.88603862
0.89210541
0.89933861
0.90726932
0.91425196
0.92037794
0.92630949
0.93191944
0.93556269
0.93850022
0.94135506
0.94427881
0.94551412
0.94731504
0.94978541
0.95216962
0.95269803
0.95240451
0.95077822
0.94670748
0.94000948
0.93258653
0.92515058
0.91691984
0.90840741
0.90027759
0.89213879
0.88218736
0.87186194
0.86245167
0.85503255
0.84881623
0.84635616
0.84777976
0.85204981
0.85703115
0.86315357
0.86966079
0.87546671
0.88048183
0.88653194
0.89431865
0.90307068
0.91314099
0.92478971
0.9369792
0.94695137
0.95497884
0.96110843
0.96542405
0.96653824
0.96734815
0.96871915
0.97056019
0.97153922
0.97301238
0.97466445
0.97542297
0.97495691
0.97487868
0.97537118
0.97490422
0.97313881
0.96999587
0.96457185
0.95483626
0.94229816
0.9285066
0.91483476
0.90074115
0.88904695
0.88032147
0.87425268
0.86969748
0.86814164
0.86966017
0.87343954
0.8789169
0.88676885
0.89638046
0.90602969
0.91583133
0.92659701
0.93836902
0.94953099
0.96100836
0.97282107
0.98446648
0.99373988
1.0026096
1.0110775
1.0182921
1.0223247
1.0240956
1.0232967
1.019496
1.0135919
1.0085453
1.005477
1.0029711
1.0000551
0.99564069
0.98815517
0.97572846
0.9608697
0.94605688
0.93269329
0.91887898
0.90530244
0.89047903
0.87352216
0.85491326
0.8396942
0.83183632
0.83296752
0.84228531
0.85763456
0.87418144
0.88652205
0.89319101
0.89603018
0.89802962
0.90094583
0.90795662
0.9194011
0.93334892
0.94539942
0.95577212
0.96399171
0.97015616
0.97413491
0.97848122
0.98334466
0.987252
0.98901328
0.98941875
0.98840686
0.985092
0.9806521
0.97672636
0.97367301
0.9697419
0.9657155
0.96135585
0.95583633
0.94666033
0.93579267
0.92382619
0.91121658
0.89785228
0.88631177
0.87737718
0.87061717
0.86568796
0.86364531
0.86434164
0.8664502
0.87018202
0.87613474
0.88398767
0.89187885
0.90061508
0.91034629
0.92076896
0.92983697
0.93938947
0.94939499
0.95921178
0.96740941
0.97529581
0.98248951
0.98768586
0.99019917
0.99122494
0.99087066
0.98816461
0.98404679
0.98001403
0.97658846
0.97253382
0.9692881
0.96723938
0.96589739
0.96261749
0.95863309
0.95333054
0.94582291
0.93494276
0.92279336
0.91035094
0.89797061
0.88643091
0.87782236
0.87261056
0.86960441
0.86874302
0.87020295
0.8733616
0.87715831
0.88198834
0.88728356
0.89258904
0.89780653
0.90528793
0.91558631
0.92771728
0.93931847
0.94827804
0.95218439
0.95095488
0.94829415
0.94918849
0.95554327
0.96452209
0.97088263
0.9687108
0.95595948
0.93727528
0.92410053
0.9254795
0.94183626
0.96226702
0.97151328
0.95657383
0.91801188
0.87326458
0.84945091
0.86519214
0.91644078
0.97288045
0.98774111
