0.70181687
0.69680524
0.72573176
0.7539538
0.7602835
0.74871529
0.74146968
0.76066804
0.8152325
0.89391322
0.97295046
1.0300756
1.0574839
1.0621039
1.058156
1.0588949
1.070197
1.0891326
1.1070877
1.1190779
1.1240436
1.1240489
1.1215168
1.1193923
1.1184542
1.1173104
1.1151956
1.1124405
1.1087016
1.100892
1.0873895
1.0662173
1.0358156
0.99644129
0.95245286
0.90794864
0.86591684
0.83043353
0.80417817
0.7872653
0.77660006
0.77150398
0.76971188
0.76913371
0.76917861
0.77253886
0.78187651
0.79865959
0.82505512
0.8606322
0.90127618
0.93892816
0.96958042
0.98922972
0.99681173
0.9954405
0.99282457
0.99467448
1.0022566
1.015447
1.0312213
1.045078
1.0522199
1.0553482
1.0568428
1.0579882
1.0580371
1.0557148
1.0464148
1.0247121
0.99049681999999994
0.94753012
0.90155079
0.8571938
0.82114566
0.79523664
0.77776212
0.76558811
0.75738533
0.75182344
0.74790849
0.74744394
0.7526482
0.7648037
0.78283628
0.8079218
0.83825083
0.87002553
0.89901733
0.92363714
0.94260898
0.95525143
0.96472357
0.9743757
0.98518106
0.9938252
1.0000229
1.0018328
0.99863031
0.99259093
0.98951381
0.99215626
0.99783366
1.0019461
0.99772595
0.97896157
0.94222038
0.8945797
0.84513249
0.80243759
0.77155634
0.7541866
0.7462349
0.74096415
0.73509694
0.72868924
0.72390409
0.72237477
0.72824837
0.74266282
0.76502576
0.79446178
0.83155793
0.87489975
0.92013238
0.96306667
0.99886894
1.0232005
1.0327622
1.0322278
1.0269011
1.0215706
1.0192136
1.0221501
1.0285988
1.0341425
1.0372415
1.0378749
1.0362473
1.0305668
1.0227647
1.0116797
0.99480696
0.97022247
0.9396419
0.90487077
0.86755935
0.83161514
0.80055715
0.77604713
0.7568002
0.74372006
0.73539703
0.72964676
0.72496699
0.72288464
0.7254275
0.73465955
0.75443207
0.78709067
0.83131823
0.88062279
0.93018915
0.97327697
1.0045144
1.0222758
1.0307272
1.0342821
1.0354198
1.037076
1.0401522
1.0434392
1.0437062
1.0432276
1.0427858
1.0418428
1.0385412
1.0318698
1.0186992
0.99546064
0.96322388
0.92568555
0.88719888
0.85021539
0.81949053
0.79598499
0.77854066
0.76562305
0.75770998
0.75455318
0.7550024
0.75958911
0.76901801
0.78376046
0.80322546
0.83024908
0.86521554
0.90579315
0.94743497
0.98628902
1.0175527
1.0370201
1.0458038
1.0477066
1.0466985
1.0438707
1.0431241
1.0444399
1.0459622
1.0459616
1.045532
1.0442033
1.0392295
1.0292928
1.012708
0.98755104
0.9516676
0.90994507
0.86712393
0.82762411
0.79467614
0.77119221
0.75619899
0.74596472
0.73856148
0.73351071
0.73159508
0.73359968
0.74403696
0.76488939
0.79547414
0.83293162
0.8744296
0.91543234
0.95090189
0.97950014
1.0017869
1.0188587
1.0302006
1.0392775
1.0467627
1.0519667
1.0543447
1.0560495
1.0580164
1.0596336
1.0621779
1.0661651
1.0703237
1.0706337
1.06729
1.0584375
1.0418013
1.0160189
0.98318479
0.94520376
0.90380064
0.86326896
0.82777185
0.79958904
0.77769726
0.76288096
0.75338841
0.74682159
0.74176215
0.73995611
0.74328221
0.75290962
0.77119979
0.7989605
0.83416209
0.87110022
0.9072989
0.93905705
0.96364229
0.98056034
0.99291645
1.0023967
1.0081968
1.0107649
1.0102716
1.0068545
1.0001476
0.99562436
0.99629485
1.0020865
1.0097761
1.0156953
1.0137687
0.99825107
0.96956077
0.93223634
0.89248467
0.8547686
0.82524024
0.80495265
0.79164402
0.78213335
0.77560745
0.77157611
0.76985327
0.77255624
0.78147309
0.79670854
0.81569481
0.83834412
0.86275944
0.88653621
0.90791355
0.92783294
0.94650261
0.96287212
0.97790095
0.99219393
1.0050539
1.013548
1.0194392
1.0230292
1.0243634
1.0238338
1.0237985
1.0240712
1.0216336
1.0147663
1.0016192
0.98021501
0.94813384
0.90954837
0.86842489
0.82886453
0.79458642
0.76963703000000006
0.75409285
0.7443741
0.73752982
0.73125381
0.72464849
0.71798758
0.71702833
0.72632096
0.74806021
0.78134864
0.82354958
0.86849846
0.90848818
0.93959167
0.96097291
0.974083
0.98037996
0.98572634
0.99287167
1.001856
1.011146
1.0205192
1.0282712
1.0319622
1.0325123
1.0317069
1.0306576
1.0279085
1.0254747
1.0221054999999999
1.0148565
1.0008037
0.98018044
0.95327169
0.92070104
0.88624064
0.85396447
0.82629135
0.80246386
0.78365777
0.76873904
0.75618557
0.74555763
0.7393167
0.73948176
0.74667171
0.76211027
0.78556487
0.81472709
0.84465822
0.8743675
0.90168446
0.92448457
0.94154447
0.95456013
0.96407448
0.96928271
0.97198783
0.97441123
0.97796792
0.98162094
0.98829914
0.99776315
1.0077033
1.0148867
1.0179075
1.0139245
0.99948075
0.97505096
0.94310744
0.90689773
0.8686552
0.83440171
0.80693437
0.78649653
0.77173763
0.76218095
0.7562154
0.7521263
0.75140582
0.75681045
0.77076104
0.79329426
0.82604626
0.86695953
0.91142213
0.95406635
0.99209708
1.0230359
1.0448698
1.059425
1.0694348
1.076426
1.0787141
1.0783372
1.0751376
1.0687107
1.059675
1.0516839
1.0463448
1.0420153
1.0373413
1.0296549
1.0153195
0.99006045
0.95674913
0.91863611
0.87951035
0.84297467
0.81325419
0.79107301
0.77419739
0.76154938
0.7525528
0.74700519
0.74431865
0.74801404
0.7601574
0.78155415
0.81193186
0.85126558
0.89689781
0.94382718
0.9886635
1.028481
1.0607711
1.0826407
1.0969807
1.1055776
1.1096421
1.1102606
1.1101856
1.1099015
1.1079032
1.1049337
1.1017746
1.0982554
1.0919507
1.0844948
1.0749514
1.061239
1.0414688
1.0164999
0.98640107
0.9507393
0.91194146
0.87314029
0.83699147
0.80437644
0.77895805
0.76162348
0.75128861
0.74596243
0.74516592
0.74804658
0.75392973
0.76494311
0.78326796
0.80912892
0.83900503
0.87134457
0.90231269
0.92841607
0.94844948
0.96504417
0.97956208
0.9906489
0.99781526
0.9999361
0.99610385
0.98586157
0.97583849
0.97100627
0.97336497
0.98107023
0.9905309
0.99460109
0.98590705
0.96331776
0.93027134
0.89243516
0.85408382
0.82165381
0.7966262
0.77735899
0.76142277
0.74869905
0.7389084
0.73146462
0.72761552
0.728251
0.73315887
0.74054616
0.75217709
0.76872228
0.79030714
0.81672291
0.84857849
0.88398041
0.9185117
0.94947928
0.9747424
0.99247058
1.0002166
1.0013839
0.99823182
0.9923488
0.98496426
0.97881568
0.97418565
0.96904878
0.96326168
0.9567145
0.94840488
0.93517649
0.91849072
0.8979956
0.87306857
0.84396452
0.814069
0.78606677
0.76144671
0.74269295
0.73085493
0.72458986
0.71993824
0.71648999
0.71399369
0.71403772
0.72035156
0.73880039
0.77224403
0.81856305
0.87323727
0.9289053
0.97710668
1.0097831
1.0273206
1.0326087
1.0304796
1.0262284
1.0258166
1.0308225
1.038637
1.0476461
1.0564591
1.0636834
1.0666311
1.0674651
1.0657595
1.0592047
1.0447449
1.0218517
0.98977546
0.94839603
0.90200946
0.85667358
0.81772581
0.78718681
0.7680152
0.75871829
0.75531473
0.75370294
0.75298886
0.75358556
0.75705468
0.76771265
0.78940431
0.82327567
0.86597289
0.91505362
0.96486737
1.0088745
1.0421305
1.0646312
1.0776462
1.0827255
1.0845735
1.0872664
1.0919427
1.0952283
1.0975102
1.0972836
1.0935751
1.0871502
1.0821116
1.07985
1.0775219
1.0720824
1.0593485
1.0352179
0.99652784
0.9487882
0.89839035
0.85146338
0.81216914
0.78359437
0.76459
0.75138225
0.74247882
0.73810197
0.73929183
0.74618711
0.76239902
0.7896302
0.82849264
0.87901419
0.94161374
1.0128505
1.0847289
1.1492683
1.1987192
1.2276891
1.2339638
1.2253438
1.2104098
1.1962667
1.1866638
1.1834228
1.1836167
1.182151
1.1780568
1.1726438
1.1673211
1.1604843
1.153086
1.1419778
1.1228461
1.0932009
1.0556795
1.0139542
0.9714881
0.93297299
0.90116934
0.8759566
0.85437054
0.83676828
0.82283405
0.81274825
0.80752292
0.80993625
0.82104125
0.83968393
0.86550014
0.89726569
0.93239236
0.96603377
0.99785408
1.0259433
1.0482042
1.0635333
1.0738286
1.0795048
1.0795224
1.0756911
1.0700139
1.0636136
1.0553053
1.0481967
1.0421097
1.0349121
1.0239217
1.0086286
0.98734722
0.95808109
0.92288224
0.88520983
0.84844725
0.81411928
0.78682276
0.7675636
0.75504416
0.74717113
0.74369216
0.74401359
0.74774405
0.75736482
0.77544407
0.80273257
0.83643322
0.87534946
0.91547376
0.95213987
0.98202702
1.0055859
1.0231749
1.0341328
1.0399216
1.0416209
1.0393373
1.0315515
1.0222085
1.01358
1.0067786
1.0019377
1.000008
0.99898304
0.99469338
0.98560739
0.9711476
0.95088379
0.92331977
0.89208901
0.85955892
0.82794679
0.79967687
0.77838094
0.76481672
0.75663463
0.75185247
0.74856631
0.74575974
0.74329614
0.74634219
0.75890247
0.78259671
0.81596481
0.85607294
0.89695934
0.93175439
0.95802904
0.97647463
0.98942685
0.99804725
1.0069292
1.0166783
1.0252714
1.0301303
1.0315971
1.029919
1.0252183
1.0204897
1.0180406
1.0173647
1.013654
1.0052958
0.98894477
0.96243262
0.92661233
0.887272
0.849826
0.81743424
0.79291268
0.77660954
0.76635791
0.758023
0.75181064
0.74762036
0.74557928
0.74603781
0.75074363
0.75999281
0.7728864
0.79045422
0.81362494
0.84177254
0.87096921
0.90034739
0.92701321
0.94830576
0.96351579
0.97596
0.98808712
1.000076
1.0128391
1.0257893
1.0367099
1.0417203
1.0429174
1.0417267
1.0393403
1.0364329
1.0343399
1.0307973
1.0207116
1.0014567
0.9724991
0.93553092
0.8932844
0.8534843
0.82100335
0.79709482
0.77983674
0.76733348
0.75737557
0.74962996
0.74883954
0.76125783
0.79060356
0.83418263
0.88733426
0.94031691
0.98289597
1.0088654
1.0200866
1.0218414
1.0194981
1.0191264
1.023606
1.0317158
1.0384341
1.0438593
1.0473786
1.048556
1.0471435
1.0447899
1.0407976
1.0325812
1.0202816
1.004595
0.98535359
0.95994417
0.9303152
0.89695029
0.8609428
0.82498171
0.79448059
0.7724235
0.7582501
0.75100181
0.74890235
0.75050879
0.75523531
0.7684097
0.79446908
0.83523542
0.88862105
0.95010223
1.0112368
1.0623565
1.0989168
1.1208325
1.131222
1.1332578
1.1341832
1.1368499
1.1403473
1.141865
1.1406406
1.1356987
1.1265842
1.1167146
1.1094943
1.1056197
1.1010546
1.0941014
1.0806618
1.05771
1.0256145
0.98992385
0.95584313
0.92602453
0.9022913
0.88376583
0.86760774
0.85022728
0.83361356
0.82010171
0.81184552
0.80990281
0.81516478
0.82599866
0.83951195
0.85567397
0.87555474
0.89959254
0.92514947
0.95211413
0.977201
0.99657988
1.008301
1.0147137
1.0177551
1.0177316
1.0163599
1.0141115
1.010049
1.0017162
0.99242225
0.98394883
0.97689193
0.97066352
0.965137
0.95721424
0.94227695
0.91961336
0.89103497
0.85988408
0.82894298
0.80446142
0.78861153
0.77999326
0.77508367
0.77155697
0.76718264
0.76131566
0.75786009
0.76198994
0.77716608
0.80227718
0.83603111
0.8727953
0.90572084
0.92994272
0.94579607
0.95520625
0.95997258
0.96386498
0.96916961
0.97538554
0.97867788
0.97993843
0.97903921
0.97633385
0.97308262
0.97270637
0.9757019
0.97906253
0.98043386
0.97706334
0.96617761
0.9448904
0.91683059
0.88518255
0.85270172
0.82147386
0.79445745
0.77242032
0.75461062
0.74203515
0.73543995
0.7339966
0.73434023
0.73648669
0.7404538
0.74842008
0.76519125
0.79765693
0.84833507
0.91245553
0.98119196
1.0426212
1.0857027
1.1033965
1.1009416
1.0874811
1.0726711
1.0629853
1.0617444
1.0657741
1.0682769
1.0660683
1.0592102
1.0494298
1.036807
1.0244951
1.0113778
0.99409096
0.96971947
0.93968899
0.90629514
0.87190484
0.8410077
0.81697492
0.80041831
0.78831647
0.78076064
0.77640431
0.7740491
0.77355465
0.77786367
0.78904928
0.8073171
0.83376073
0.86840525
0.90909843
0.95051735
0.99129546
1.0286641
1.059937
1.0835954
1.1013169
1.1133813
1.1183968
1.1175062
1.1123995
1.1046072
1.0941772
1.085939
1.0815671
1.0800147
1.0784519
1.0755015
1.0687342
1.056031
1.0398889
1.0243443
1.0122543
1.0028149
0.99717371
0.99361342
0.99042698
0.98789178
0.98979813
0.99873546
1.0140925
1.0339627
1.0541502
1.0695899
1.0757542
1.0752064
1.0716667
1.0687106
1.0683822
1.0723426
1.0786482
1.0829881
1.0844832
1.0839812
1.0823089
1.0777465
1.0730369
1.0682232
1.0628432
1.0575414
1.0562413
1.0603223
1.0670225
1.0731772
1.073901
1.0637117
1.0375187
0.99936512
0.95462247
0.90924962
0.86825452
0.83635187
0.81384989
0.79785815
0.78741059
0.7822909
0.78239211
0.78644581
0.79758763
0.81722637
0.84625464
0.88567118
0.93726128
0.99868257
1.0629204
1.1229549
1.171698
1.2039593
1.2170629
1.2176517
1.2124117
1.2061603
1.2006353
1.1968193
1.1927638
1.1861856
1.1798897
1.1784643
1.184481
1.1945151
1.2053087
1.2088183
1.1972094
1.1672826
1.1239137
1.0743481
1.0249131
0.98149206
0.9462436
0.91762296
0.89164336
0.86915725
0.85091029
0.83764339
0.8296263
0.82789945
0.83196581
0.84090338
0.85691248
0.88266604
0.91880011
0.96120944
1.0066168
1.0480059
1.0784122
1.094474
1.0992787
1.0971577
1.0913988
1.0865159
1.0845271
1.084282
1.0814792
1.0775614
1.0727513
1.0671622
1.0610173
1.05614
1.0512719
1.0425291
1.0285631
1.0087803
0.9829249
0.95013151
0.91500068
0.88032537
0.8478207
0.81864343
0.79513969
0.77772497
0.76532531
0.75866261
0.75835944
0.76404852
0.7743996
0.78943755
0.80810599
0.83037831
0.85854035
0.89583977
0.94269798
0.99536878
1.0480209
1.092519
1.1224524
1.1362375
1.1398489
1.1392302
1.1374222
1.1335593
1.1243722
1.1069902
1.0836939
1.0636749
1.0548684
1.0569562
1.0584482
1.0441286
1.0020255
0.93543001
0.86600156
0.82324763
0.82462142
0.86091509
0.89625457
