0.70598606
0.73665364
0.77496737
0.79749353
0.8129799
0.85165814
0.93666386
1.0626492
1.1937485
1.2843102
1.3075306
1.2715653
1.2098825
1.1574129
1.1343948
1.1373284
1.1472198
1.1475433
1.1345192
1.1144037
1.0951979
1.0821538
1.0721863
1.0557271
1.0268614
0.98525202
0.93543175
0.88522178
0.84337431
0.81407208
0.79505501
0.78342376
0.77361272
0.76077543
0.74625006
0.73331366
0.72360171
0.71690035
0.71328005
0.71307637
0.71892275
0.74081726
0.78626453
0.85539478
0.94184211
1.0322745
1.1109136
1.1675158
1.2034603
1.2241557
1.2335912
1.2368754
1.2337568
1.2206886
1.1974436
1.169622
1.1434982
1.122305
1.1094548
1.1004078
1.0853179
1.0579114
1.0171628
0.96749848
0.91802658
0.88006265
0.85745871
0.84388353
0.83125332
0.81162168
0.78341913
0.75477172
0.73754644
0.73669135
0.74556048
0.75299078
0.74913864
0.73559856
0.73131567
0.7604077
0.83613525
0.95141249
1.0801548
1.1867933
1.2434319
1.2485647
1.2184602
1.1763274
1.1425756
1.1245289
1.1155206
1.1041614
1.0867442
1.0644597
1.0405527
1.0212008
1.0064453
0.99022298
0.96668084
0.93493632
0.89796381
0.86123036
0.83398414
0.81938911
0.81300306
0.80802571
0.79775654
0.77927906
0.75642056
0.73902666
0.7337007
0.73874491
0.74923907
0.75817965
0.76372779
0.77469784
0.80564019
0.86510219
0.94760515
1.037168
1.1096802
1.1457955
1.1451889
1.1214993
1.0924904
1.0713342
1.0622425
1.0580615
1.0466342
1.0256021
0.99670743
0.96360503
0.93096869
0.90051
0.87027634
0.83880623
0.81056133
0.78986826
0.77766811
0.77389609
0.77396125
0.7715921
0.7642507
0.75458802
0.74622683
0.74080424
0.74070485
0.74490573
0.7513776
0.76194569
0.77983773
0.80666271
0.84189848
0.88471209
0.9320134
0.97972579
1.0288328
1.0776108
1.1200874
1.1493311
1.1592538
1.1461821
1.1121947
1.0695672
1.029958
0.99870352
0.97695069
0.95899757
0.93606188
0.90353313
0.86526759
0.82815699
0.79704704
0.77731716
0.76749142
0.76153787
0.7551425
0.74697391
0.73730872
0.72740087
0.72062777
0.71741447
0.71534855
0.71474293
0.71614937
0.7204913
0.73050731
0.74973327
0.77878372
0.81484392
0.85699283
0.90216076
0.9468304
0.99121661
1.0350253
1.0749101
1.1057894
1.1241862
1.1266548
1.112035
1.0880571
1.0629431
1.0416305
1.0258538
1.0134168
0.99810051
0.97374821
0.94154057
0.90483431
0.86710224
0.83377796
0.80773395
0.78839582
0.77429503
0.76541962
0.76020698
0.75476774
0.74861501
0.74027908
0.72885114
0.71700932
0.70881061
0.70621198
0.70835865
0.71457637
0.72214882
0.7284836
0.73712219
0.75287681
0.77934559
0.81860401
0.86926228
0.9239004
0.97140642
1.0058093
1.0226923
1.0211076
1.0073881
0.98973686
0.97364691
0.96119882
0.95333956
0.94661581
0.93509636
0.91833707
0.89674582
0.87134384
0.84528398
0.82236208
0.804051
0.78965276
0.78034527
0.774832
0.76975757
0.764031
0.75669741
0.74689608
0.73557061
0.72618423
0.72098032
0.71956603
0.72379392
0.73330719
0.74702746
0.7665193
0.79425442
0.83072444
0.87379887999999994
0.92100082
0.96580202
0.99931396
1.0180982
1.0209613
1.0089916
0.98719163
0.96309941
0.94125888
0.92154453
0.90514496
0.88938784
0.86998719
0.84680168
0.82195923
0.79769769
0.77622058
0.76090515
0.75170835
0.74506041
0.74017266
0.7353184
0.72864406
0.7208285
0.71437747
0.71073
0.70975716
0.71314538
0.72002751
0.72770702
0.73667882
0.7487604
0.766422
0.79328172
0.83317045
0.88491488
0.94075776
0.99398236
1.0354374
1.0576893
1.06098
1.0511892
1.0351323
1.0180135
1.0049137
0.99509919
0.98329441
0.96770983
0.94753634
0.92314204
0.89760554
0.87589612
0.8602372
0.84898197
0.84212808
0.83701041
0.82989769
0.82036317
0.80949928
0.79822199
0.78758158
0.78019188
0.77664098
0.77532184
0.77757865
0.78372275
0.79332273
0.80752411
0.82830225
0.85608866
0.88959048
0.92892386
0.97062383
1.0081464
1.0375203
1.0551108
1.0585659
1.0497352
1.0353851
1.0214446
1.0097341
1.0036973
1.0009491
0.99530064
0.98263396
0.96142406
0.93157448
0.89501175
0.85826349
0.82605042
0.79970654
0.78143919
0.77019527
0.76220849
0.75444712
0.74624334
0.73733826
0.72755239
0.72034019
0.71664604
0.71460363
0.71333175
0.7120216
0.71030285
0.71039125
0.71865363
0.74037361
0.77708923
0.82999719
0.89388009
0.95857753
1.0146937
1.0556645
1.0776722
1.0807314
1.072241
1.0585275
1.042197
1.0261224
1.0098038
0.98985687
0.96388587
0.93342949
0.90019255
0.86457433
0.831406
0.8030303
0.77963492
0.76246166
0.75260286
0.74879576
0.7479846
0.74906677
0.74951108
0.74616999
0.74035256
0.73407398
0.72889708
0.72683479
0.73012343
0.73868727
0.75068592
0.76807752
0.79255337
0.82540803
0.86962703
0.92500105
0.98536929
1.0407317
1.0824092
1.1031174
1.0999277
1.0812148
1.0572782
1.0356952
1.0207997
1.0125882
1.0066299
0.99793939
0.9874831
0.97588147
0.96134715
0.94303264
0.91920238
0.88906524
0.85611607
0.82837396
0.81120957
0.80289695
0.79987523
0.79481929
0.78240781
0.76514606
0.75049955
0.74408838
0.74587704
0.7528723
0.75968613
0.76397617
0.77297271
0.79602081
0.83726968
0.89267068
0.95055311
0.99537112
1.015894
1.015147
1.0022452
0.98657139
0.97584486
0.97087261
0.96660341
0.95832436
0.94726257
0.9358094
0.92437206
0.91496645
0.90540775
0.89183058
0.87408631
0.85584416
0.84054606
0.82907632
0.82213615
0.816031
0.80523175
0.78909956
0.77005894
0.7519571
0.73918398
0.73531067
0.73901883
0.74445428
0.74908883
0.75136225
0.75274746
0.75966506
0.77873486
0.81128197
0.85218249
0.89414937
0.92730145
0.94389738
0.94609757
0.9400441
0.93165896
0.92512953
0.92159709
0.9174199
0.90718321
0.89215263
0.87465909
0.85683132
0.84224433
0.83197431
0.82349727
0.81359681
0.80246739
0.79034261
0.77660169
0.76414708
0.75381841
0.74462839
0.73674702
0.73148982
0.72914311
0.72884144
0.73208545
0.73824283
0.74496401
0.75253608
0.76145404
0.77188638
0.7851249
0.80416871
0.8298369
0.85926134
0.89170707
0.92286819
0.9468207
0.96106455
0.96592344
0.96251464
0.95272839
0.94224255
0.93399862
0.92706348
0.92181725
0.91598321
0.90543286
0.8880614
0.86567332
0.84133552
0.81816283
0.80232681
0.79583861
0.79594939
0.79897795
0.80003422
0.79428723
0.78015197
0.76205121
0.746166
0.73752056
0.74150127
0.7571865
0.77771892
0.79589829
0.80847595
0.81781457
0.83198254
0.86363806
0.91812765
0.98818052
1.0586972
1.1098962
1.1262154
1.1055097
1.0609622
1.0109204
0.968655
0.94240493
0.92802762
0.91472028
0.89527032
0.86869552
0.83789079
0.8069762
0.78119918
0.76130787
0.74470407
0.73215077
0.72444962
0.72116671
0.72140505
0.72396232
0.72598785
0.72467448
0.72259049
0.72203084
0.72361246
0.72846883
0.73641514
0.74623221
0.75819013
0.77601794
0.80197383
0.83461076
0.8730356
0.91232462
0.94567472
0.96954341
0.98348484
0.9875951
0.98217865
0.9711339
0.95614385
0.93703824
0.91707945
0.89916697
0.88406928
0.87146982
0.86157001
0.85216214
0.83906447
0.82351647
0.80647179
0.78853852
0.77210705
0.75963093
0.75152271
0.74676389
0.74588792
0.74706079
0.74637431
0.74307881
0.73723687
0.73007502
0.725206
0.72691957
0.73561699
0.74701989
0.75833674
0.76671214
0.77242476
0.78263463
0.80545318
0.84390407
0.8940296
0.94750618
0.99214515
1.0174186
1.0240939
1.0181069
1.0066174
0.99595751
0.988384
0.98031696
0.96577782
0.94402494
0.91576481
0.88243118
0.84865727
0.81773721
0.790497
0.76736072
0.75007874
0.7385869
0.7301067
0.72463519
0.72038543
0.71533255
0.71046664
0.70803052
0.70873574
0.7116208
0.7171679
0.724624
0.73306893
0.74581748
0.76548918
0.79193033
0.82310506
0.85560413
0.88395385
0.90277527
0.9132396
0.91721001
0.91634819
0.91447802
0.91341545
0.911438
0.90569311
0.89599522
0.88171318
0.86188284
0.84046867
0.82008377
0.80143302
0.78567061
0.77421393
0.76690398
0.76247252
0.76215727
0.76475137
0.76648795
0.76543932
0.75991907
0.7489355
0.73413217
0.72030217
0.71086907
0.70574981
0.70617408
0.71049836
0.7164543
0.72521175
0.73982199
0.76202669
0.79105072
0.82539303
0.85921423
0.88439975
0.89809196
0.89999385
0.89209563
0.87955204
0.86878761
0.8623922
0.8580283
0.85494209
0.84985211
0.83928812
0.82450781
0.8089092
0.79516371
0.78478077
0.77962576
0.77843151
0.77739781
0.77626531
0.77415015
0.76961566
0.76278237
0.75476945
0.74589735
0.7362285
0.72900796
0.72589049
0.72631982
0.73084401
0.73878348
0.74852138
0.75999122
0.77601902
0.79881006
0.82792425
0.8644558
0.90473289
0.94165921
0.96970349
0.98535001
0.98671806
0.97461996
0.95573013
0.93542401
0.9152326
0.89737788
0.88079321
0.86229568
0.84062486
0.81793635
0.79617361
0.77549754
0.7586819
0.74588566
0.7356615
0.72884057
0.72578066
0.72418479
0.72038396
0.71328671
0.70335868
0.6932405
0.69053054
0.6989482
0.71485263
0.73018863
0.73755624
0.7355629
0.73289441
0.74839885
0.79668559
0.87778858
0.97757189
1.0701114
1.1295973
1.1442675
1.1218623
1.0805971
1.0373241
1.0054933
0.98553635
0.96958263
0.95177478
0.93128681
0.90982115
0.88900941
0.87128843
0.85500965
0.83637402
0.81675177
0.79914294
0.78578486
0.77761182
0.7737371
0.76983171
0.76054995
0.74686814
0.7319408
0.71985577
0.71601679
0.72246347
0.7357218
0.74953974
0.76050891
0.76835376
0.77694049
0.7970058
0.83636006
0.89471572
0.96453765
1.0324298
1.0831115
1.1066136
1.1059237
1.0894212
1.0658182
1.0439483
1.026503
1.0102459
0.99136053
0.9702051
0.94832928
0.92637851
0.90849489
0.89478008
0.88223308
0.86923707
0.85552335
0.84061373
0.82407998
0.80815869
0.79328464
0.77813132
0.76433551
0.75287075
0.74348836
0.7364372
0.73288038
0.73268988
0.73465755
0.74112648
0.75315067
0.77061532
0.79542568
0.82861653
0.86862168
0.91235655
0.95726975
0.99773439
1.0258793
1.0400111
1.0394665
1.0251397
1.0021399
0.97772233
0.95646456
0.93917962
0.92727646
0.91785771
0.90555963
0.88909077
0.86897942
0.84667478
0.82512594
0.80844901
0.79717433
0.78748246
0.77814224
0.76678645
0.75207778
0.7367555
0.72504128
0.71896138
0.71774734
0.72110026
0.72734996
0.73560609
0.75094751
0.77935517
0.82424964
0.88533022
0.9572157
1.0281201
1.0833949
1.1149647
1.1188941
1.0969339
1.0591414
1.0175365
0.98099445
0.9540582
0.93867268
0.93106785
0.92375602
0.91386902
0.89934623
0.87956425
0.85723747
0.83645264
0.81917892
0.80496349
0.79466199
0.78644931
0.77688883
0.76561924
0.75309798
0.74009969
0.72870786
0.72233581
0.72186442
0.72458172
0.72973255
0.73485032
0.73783575
0.74055668
0.74688389
0.75956707
0.77942782
0.80729122
0.83976153
0.87050657
0.89707394
0.91664382
0.92615544
0.92491461
0.91490353
0.89741592
0.87271461
0.84575668
0.81953289
0.79484767
0.77397615
0.75790508
0.74493895
0.73264536
0.72149367
0.71162486
0.70246525
0.69739095
0.69736171
0.70002893
0.70251795
0.70279709
0.69963123
0.69377565
0.69063583
0.69322008
0.69994803
0.70858185
0.71617237
0.72198355
0.7306814
0.75132103
0.78949763
0.84212472
0.90208369
0.95646286
0.99358309
1.0111269
1.0147273
1.0120187
1.0080814
1.0059964
1.0031717
0.99477871
0.98193041
0.96762464
0.95373534
0.94036536
0.92603562
0.90702917
0.88034338
0.85051605
0.82339866
0.80306871
0.7920544
0.78845727
0.7863977
0.78026987
0.76958116
0.75610503
0.7419877
0.73211074
0.72801674
0.72776609
0.72952367
0.73300638
0.73876679
0.74836752
0.76660406
0.79491749
0.829861
0.86762486
0.90213233
0.92699045
0.93978142
0.94393855
0.94364186
0.94065464
0.93912202
0.93816144
0.93384887
0.92468991
0.91135659
0.89486919
0.87658274
0.86035645
0.84717804
0.83514196
0.82470959
0.81510606
0.8043181
0.79150399
0.77780972
0.76406027
0.75048051
0.74081354
0.73624928
0.73506847
0.73639744
0.73950621
0.74401047
0.75148429
0.76654505
0.79132612
0.8231539
0.85928306
0.89367515
0.91969153
0.93509284
0.94184959
0.94244129
0.93815056
0.93239793
0.92523286
0.91443433
0.90152309
0.8882747
0.8750098
0.8616711
0.84936768
0.83750886
0.82416614
0.81298966
0.80632309
0.80443922
0.80747649
0.81391594
0.81970338
0.82057868
0.81664927
0.80861148
0.79698046
0.78563208
0.77709749
0.77177599
0.77009112
0.7734288
0.78207329
0.7951423
0.81485212
0.8409428
0.87053903
0.90186091
0.93223428
0.95783187
0.97602394
0.98812838
0.99505957
0.99601442
0.99418397
0.99053643
0.98377289
0.97368993
0.96132537
0.94638121
0.92761454
0.90800237
0.88942443
0.87245652
0.860237
0.85425929
0.85259897
0.85165554
0.84873089
0.8405949
0.82455872
0.80452146
0.78446118
0.7672908
0.75599058
0.75147941
0.75152864
0.75304712
0.75666586
0.76380017
0.7762784
0.7993906
0.83580417
0.8837365
0.93886942
0.99543132
1.045671
1.0820997
1.1038997
1.1112399
1.1048976
1.0893024
1.0687693
1.0454568
1.0205504
0.99693609
0.9745019
0.94966274
0.9224519
0.89201403
0.8577761
0.82265743
0.79193163
0.76903372
0.75419098
0.74821972
0.74800717
0.74821177
0.74705262
0.74414036
0.73948674
0.73415409
0.73047546
0.72852598
0.7257706
0.7233373
0.72167214
0.72161165
0.72698731
0.7418126
0.76720315
0.80158383
0.84394611
0.89058053
0.93650911
0.98101691
1.0218286
1.0541781
1.0735966
1.0776148
1.0653916
1.0401355
1.0100422
0.98207686
0.96046701
0.94702365
0.93843317
0.92806598
0.91026936
0.88337395
0.85006213
0.81733985
0.79468172
0.78562918
0.78540004
0.78444077
0.77397223
0.7531161
0.73169512
0.72419482
0.73568459
0.75532883
0.76301656
0.74290579
0.69995096
0.66360109
0.66975884
0.7316046
0.82104422
