0.6874145
0.67817275
0.70818466
0.76063054
0.81533113
0.86032704
0.89357346
0.91912121
0.94209997
0.96486227
0.98559011
1.0003581
1.0087451
1.0141927
1.0216888
1.0331599
1.0491181
1.0662835
1.079983
1.0861483
1.0860236
1.0829264
1.0797938
1.0774137
1.0760118
1.07424
1.0702155
1.0640286
1.0581066
1.0542995
1.0512424
1.0466186
1.0372439
1.0204279
0.99386496
0.96210167
0.93014989
0.90269281
0.88174198
0.86910825
0.86266464
0.85843357
0.85356646
0.84881198
0.8460525
0.8472044
0.85550672
0.87317361
0.89968454
0.93142907
0.96675624
1.0030769
1.0376171
1.0663682
1.0900598
1.1081498
1.120256
1.1259945
1.128382
1.128814
1.1275654
1.1251334
1.1232462
1.1218809
1.1195508
1.1166469
1.1140691
1.1117595
1.1079127
1.1033344
1.0974389
1.0885856
1.0731744
1.0520709
1.0252159
0.99348738
0.9585208
0.92551063
0.89796886
0.87740892
0.86400953
0.85774806
0.85642614
0.85671345
0.85757383
0.85950052
0.86305031
0.86759118
0.87462672
0.88411541
0.89479838
0.90338346
0.91075796
0.91640451
0.91988451
0.92056082
0.92122763
0.92271049
0.9243586
0.92557435
0.92724009
0.92839997
0.92661906
0.92176664
0.91487837
0.90672136
0.8970358
0.88900757
0.88466055
0.88461924
0.88617338
0.89024002
0.89464157
0.89615037
0.89096507
0.87984104
0.86372925
0.84460113
0.82601842
0.81312263
0.80767005
0.80699447
0.8076093
0.80643712
0.80195491
0.79516242
0.79344259
0.80448618
0.8327321
0.87545574
0.92831442
0.98245431
1.0296976
1.0652611
1.0912278
1.1098813
1.1211029
1.122038
1.1095175
1.081144
1.0392372
0.994951
0.96414548
0.95988963
0.98538028
1.0356987
1.0963289
1.1494625
1.1797628
1.1856091
1.1731757
1.1535411
1.1363135
1.1288802
1.1302014
1.1334072
1.1309789
1.1198276
1.0996728
1.0721868
1.0418122
1.0128515
0.98685569
0.96201428
0.93867119
0.91717017
0.89835107
0.88176288
0.8707042
0.86560987
0.86481909
0.86478577
0.86482046
0.86399953
0.86299477
0.8655462
0.87793534
0.90365508
0.94148357
0.98774848
1.0359058
1.0777973
1.106068
1.1204653
1.1243019
1.1228589
1.1192354
1.1188041
1.1217703
1.125613
1.1265777
1.1252768
1.121892
1.1165732
1.1101994
1.1050294
1.1010552
1.0963721
1.0910525
1.0859576
1.0808977
1.0734969
1.063879
1.0510634
1.0336806
1.0092297
0.98083109
0.95113403
0.92300577
0.89830411
0.88056892
0.87018212
0.86510406
0.8627679
0.8621521
0.8619313
0.86102188
0.86140001
0.866392
0.8784798
0.89766202
0.92509272
0.95903451
0.99569404
1.0289741
1.0575194
1.0792902
1.0934465
1.1000595
1.1029735
1.1042268
1.1043009
1.1034997
1.1031151
1.1027181
1.1007128
1.0977671
1.0952647
1.0936153
1.0912053
1.0886409
1.0846972
1.0769303
1.0611731
1.0384813
1.0098294
0.97776195
0.94555758
0.91930137
0.90178723
0.89201635
0.88648733
0.88172167
0.87350896
0.85886509
0.83964829
0.82089243
0.80769326
0.80242509
0.80727173
0.82071314
0.8387783
0.85549807
0.87001699
0.88141037
0.88972284
0.89497838
0.8998268
0.9044371
0.90746967
0.90819559
0.90807249
0.90755857
0.90577114
0.90366967
0.9025077
0.90219111
0.90059393
0.89941623
0.90002317
0.90335401
0.90783115
0.91586279
0.92662693
0.93769782
0.94522983
0.94879527
0.94709768
0.9390994
0.92540412
0.90938211
0.89333038
0.87775171
0.86399101
0.85331808
0.84573183
0.8396375
0.83647313
0.8374275
0.84313514
0.85190312
0.86507676
0.88169236
0.90021164
0.91904074
0.94042371
0.96629128
0.99825792
1.0377042
1.0854522
1.1381163
1.1882801
1.228702
1.2534527
1.2589661
1.2447518
1.2176512
1.1865134
1.1594624
1.1396678
1.1303582
1.1290141
1.1304311
1.1287218
1.1232564
1.1144102
1.1034858
1.0926417
1.084938
1.0802185
1.0751603
1.0673126
1.0553653
1.0384782
1.0157781
0.99058316
0.96614665
0.94472912
0.9254506
0.91027598
0.89857321
0.88895801
0.87956166
0.87200154
0.86679138
0.86370034
0.86293521
0.86627888
0.87434992
0.88681028
0.90546257
0.93208193
0.96632322
1.0045702
1.0446571
1.0822196
1.1125235
1.1306934
1.1388424
1.1394392
1.1358576
1.1307618
1.1288741
1.1310812
1.1353321
1.1389889
1.1411889
1.1402268
1.1340617
1.1238062
1.1120988
1.100926
1.0901768
1.0820311
1.0766116
1.0721616
1.0640846
1.0521825
1.0353805
1.0136738
0.98780976
0.9623922
0.940205
0.92177746
0.90615348
0.89252333
0.87833392
0.86067323
0.84025956
0.82083807
0.80732253
0.80370636
0.81554384
0.84468914
0.88869731
0.93990445
0.99276956
1.0398149
1.0752561
1.0962205
1.1062596
1.1092906
1.1085626
1.1067574
1.1065445
1.107428
1.1066478
1.103711
1.0995068
1.0945889
1.0879022
1.0814942
1.0761069
1.0714663
1.065001
1.0587773
1.0526772
1.0457105
1.0356715
1.0233773
1.0082259
0.98951524
0.9681039
0.94751843
0.93000849
0.91555584
0.90418326
0.89503212
0.88569345
0.87278666
0.85726635
0.84182273
0.83062227
0.82683767
0.83643251
0.86113987
0.89889192
0.94400432
0.99168238
1.0355197
1.0701574
1.0938338
1.1089654
1.1180855
1.1223996
1.1240048
1.1241946
1.1225843
1.1171798
1.1101386
1.1035017
1.0986452
1.0938725
1.0908564
1.0882347
1.0840396
1.0763527
1.0677618
1.0598105
1.05276
1.0461806
1.0401492
1.0324422
1.0195759
1.0010064
0.97855722
0.95445466
0.92952884
0.90680501
0.88729383
0.87004783
0.85139666
0.83197104
0.81194481
0.79273651
0.77660448
0.76945011
0.77533057
0.79586562
0.8307955
0.87866988
0.9341998
0.98940586
1.0382889
1.0767655
1.1023802
1.1140373
1.1161647
1.1134869
1.1099594
1.1063034
1.1058732
1.10836
1.11199
1.1141509
1.1159585
1.1173388
1.1175859
1.1165736
1.115874
1.1153463
1.1132385
1.1096328
1.1052456
1.0997578
1.0909562
1.0794826
1.0653069
1.0481378
1.026278
1.0028967
0.97994735
0.95897348
0.94024816
0.92599824
0.91607456
0.90874927
0.90234975
0.89702856
0.89235776
0.88736711
0.88336946
0.88257698
0.88657853
0.89534867
0.91115998
0.9341372
0.96237319
0.99097747
1.0185985
1.0422728
1.0598625
1.0704018
1.0772564
1.0824393
1.0863636
1.0888788
1.0905786
1.09034
1.0862859
1.0797121
1.0734136
1.0692381
1.0662486
1.0652866
1.0649704
1.0627388
1.0543493
1.0416555
1.025889
1.0085491
0.99012794
0.9734204
0.95831791
0.94282429
0.92515876
0.9059729
0.8855382
0.8636653
0.84228518
0.82399849
0.81032679
0.80089749
0.79761604
0.80119993
0.81126422
0.82510467
0.84347917
0.86524428
0.88902178
0.91320339
0.93899193
0.96553025
0.99047389
1.0118131
1.0295821
1.0436642
1.0542308
1.0646178
1.0786515
1.09761
1.1184463
1.1389787
1.1552589
1.1637664
1.1614807
1.152832
1.141911
1.131951
1.1232822
1.1165566
1.1087342
1.0956472
1.0752352
1.0497299
1.0219979
0.99404758
0.96844463
0.94654312
0.9273096
0.90772802
0.88803329
0.86910686
0.85235734
0.83784811
0.82868655
0.82564917
0.82849926
0.83623167
0.85030915
0.87061368
0.89573612
0.92406383
0.95465757
0.98494089
1.0113418
1.0328414
1.0497144
1.0620221
1.068541
1.0711602
1.0707606
1.0676466
1.0604344
1.0524605
1.0451095
1.0391942
1.0345711
1.0334491
1.0353823
1.0381906
1.0397099
1.0390339
1.033919
1.0213757
1.001191
0.97485726
0.94411272
0.90983526
0.8762623
0.84674095
0.82323033
0.80450396
0.79215038
0.78511005
0.78150408
0.77902658
0.77914247
0.7828902
0.79105151
0.80458557
0.82485786
0.850204
0.87598346
0.8984122
0.91462323
0.92267315
0.92161468
0.91574293
0.90952457
0.90624023
0.90530354
0.90762471
0.91000475
0.90818429
0.89872342
0.8843092
0.86945074
0.86010764
0.86286131
0.88341189
0.92112123
0.96852328
1.0162568
1.0551018
1.078057
1.082007
1.0724894
1.0576568
1.0446836
1.0351236
1.0297605
1.0241929
1.0130322
0.99262141
0.96623726
0.93906242
0.9162006
0.90105804
0.89510067
0.89527607
0.89575321
0.89309692
0.88689368
0.87859998
0.86986023
0.86523137
0.86752327
0.8775619
0.89322461
0.91531978
0.94237031
0.97192823
1.0004486
1.0266273
1.0479347
1.0620232
1.0685291
1.0701075
1.0690758
1.0663459
1.0637823
1.0628715
1.0634685
1.0632762
1.0632853
1.0636546
1.0637159
1.0604152
1.0550862
1.0474296
1.0374874
1.025496
1.0152164
1.0080599
1.002931
0.99741106
0.98986683
0.97784492
0.95944232
0.93675439
0.91408937
0.89488311
0.87934294
0.86789771
0.85844995
0.84818619
0.83420698
0.81966134
0.80802615
0.80290044
0.80632291
0.82097115
0.84613929
0.87926756
0.91818542
0.96205848
1.0080694
1.0509422
1.0862002
1.1098478
1.1187859
1.1115605
1.0937346
1.0725983
1.0548978
1.042665
1.0388362
1.0406911
1.0431783
1.0409793
1.0343402
1.0244294
1.0131324
1.0028237
0.99616312
0.99201837
0.98583757
0.97418821
0.95534256
0.92907519
0.89630979
0.86282944
0.83408798
0.81344596
0.7996598
0.79272498
0.78957168
0.78715731
0.78371565
0.78226335
0.78585142
0.79664433
0.81584229
0.84416649
0.87991482
0.91998786
0.96337722
1.0095537
1.0565094
1.0994168
1.1350799
1.1591269
1.1682734
1.1606679
1.1426005
1.1209476
1.1021677
1.0895314
1.0858265
1.0884647
1.091871
1.0912481
1.0858351
1.0760697
1.0628587
1.0493844
1.0385028
1.0303223
1.0214544
1.0104955
0.99542044
0.97458077
0.94581754
0.91257585
0.87781372
0.84445486
0.81419707
0.79050314
0.77394117
0.76285033
0.75509776
0.75022718
0.747574
0.74672488
0.75014027
0.76136842
0.78286125
0.81439584
0.85671394
0.90761701
0.96276324
1.0153107
1.0626882
1.1011381
1.1279403
1.1416934
1.1454824
1.1419206
1.1333222
1.1225881
1.1136129
1.1076323
1.1030691
1.0992405
1.0957268
1.0915641
1.0849743
1.078226
1.0730694
1.0700114
1.066165
1.061696
1.0541323
1.0408061
1.0194849
0.99248842
0.96196392
0.92975041
0.89776518
0.86889586
0.8441538
0.82285654
0.80547386
0.79292724
0.78518491
0.78043276
0.77873447
0.77921818
0.78072886
0.78130903
0.78397561
0.79127297
0.80601305
0.83009279
0.8661683
0.91217024
0.96212729
1.0088929
1.0469178
1.0716457
1.0812105
1.0796368
1.0737674
1.0694573
1.0685561
1.0724079
1.0783274
1.0817205
1.0770992
1.0656379
1.0492607
1.031079
1.0135477
1.0001408
0.9902497
0.98052156
0.96753051
0.95012096
0.9277013
0.90051357
0.87161202
0.84475106
0.82216335
0.80335076
0.78895032
0.77819123
0.76968753
0.76085268
0.75320585
0.74730816
0.74358757
0.74190115
0.74429831
0.75141101
0.76312182
0.77976171
0.80245587
0.83006242
0.85889782
0.88575755
0.90714751
0.91944618
0.91965265
0.91016136
0.8945618
0.87676848
0.8583561
0.84329104
0.83164133
0.82170672
0.81100398
0.80103937
0.79282803
0.78725213
0.78568645
0.79045986
0.80126437
0.81520694
0.83018003
0.84428601
0.85487384
0.85831121
0.85452511
0.84409312
0.82840957
0.8081419
0.78786351
0.76997295
0.75507942
0.74167188
0.72991795
0.71907156
0.70895658
0.7011414
0.69895698
0.70357478
0.71291364
0.7243447
0.73521711
0.74401743
0.75136257
0.76349279
0.78658176
0.82370485
0.87129936
0.92410567
0.97242738
1.0072848
1.0236969
1.0252657
1.0184595
1.0096161
1.0028099
0.99984456
0.99801959
0.99240232
0.98123205
0.96629144
0.95074258
0.93637127
0.92606976
0.9195234
0.91381456
0.90356713
0.88860797
0.86922912
0.84720991
0.82440725
0.80500293
0.79034184
0.77920524
0.76947924
0.7605947
0.75175847
0.74228938
0.73392095
0.72930186
0.72976198
0.73422066
0.74302244
0.75599033
0.77358929
0.79622763
0.82841059
0.87203118
0.92557603
0.98309921
1.0379917
1.0813988
1.1062219
1.110938
1.1007244
1.0828619
1.0636206
1.0487168
1.0408916
1.0389897
1.038828
1.0394834
1.0402752
1.0405696
1.0376921
1.0328408
1.0255812
1.0159713
1.004654
0.99596996
0.99196537
0.99132635
0.98992355
0.98322882
0.96580258
0.93391917
0.8900559
0.84193884
0.79881768
0.76724667
0.75200827
0.75162224
0.75918808
0.76403889
0.7608757
0.74795401
0.72949269
0.71417132
0.71462053
0.73887668
0.78748654
0.85390116
0.92710457
0.99301316
1.0394446
1.0625373
1.0658896
1.057178
1.0436984
1.033767
1.0308252
1.0337304
1.0369266
1.0393138
1.0392753
1.0366102
1.0316769
1.028228
1.0275252
1.0286664
1.0302425
1.032203
1.0331841
1.0307654
1.0245166000000001
1.0146483
1.0003949
0.97952598
0.95309369
0.92278402
0.89113067
0.8596742
0.83346287
0.81435622
0.80125892
0.7901452
0.77912639
0.76694661
0.75535687
0.75027189
0.76065292
0.79225916
0.84411169
0.91001843
0.97892649
1.0379532
1.0765513
1.0938201
1.0945834
1.0867791
1.0760432
1.068961
1.0659378
1.0640706
1.0594137
1.0527786
1.0453234
1.0382912
1.0329437
1.0307766
1.0303132
1.0280891
1.0231959
1.0167835
1.0103656
1.0041033
1.0003983
0.99921571
0.9981904
0.99203929
0.98006261
0.9614636
0.9371979
0.90920961
0.88272927
0.86039496
0.84177568
0.82475603
0.80842004
0.79234293
0.77793350000000006
0.77091202
0.77830956
0.80403606
0.84555034
0.89758146
0.95027947
0.99330006
1.0185125
1.0276844
1.0259195
1.0203706
1.0167077
1.0197408
1.0285247
1.0386172
1.0459997
1.0500472
1.0511411
1.0498109
1.0486349
1.0497616
1.0528358
1.0545484
1.0545329
1.0522553
1.0475193
1.0388214
1.0295101
1.0208155
1.0131224
1.005993
0.9990304
0.99031101
0.97839475
0.96402324
0.94911933
0.93430509
0.91813153
0.89854313
0.8732127
0.84209766
0.80923774
0.78331173
0.77114386
0.77361893
0.78366408
0.79187072
0.78999552
0.77929462
0.77269145
0.78938508
0.84083463
0.92187492
1.0108866
1.079246
1.1066884
1.0952858
1.0719835
1.0719015
1.1150474
1.1884645
1.2475104
