0.98157012
0.97901173
1.0180026
1.0737303
1.1171621
1.1321592
1.1188846
1.0900558
1.05991
1.0385344
1.0259573
1.0153615
0.99817313
0.97349626
0.94709404
0.92856939
0.92438231
0.93699489
0.9615265
0.98895205
1.0093566
1.0192754
1.0203762
1.0180089
1.0163931
1.0194952
1.0272823
1.0369195
1.0432536
1.0446614
1.0414711
1.0361135
1.0305033
1.0279801
1.0296804
1.0343667
1.0368525
1.0348525
1.0247924
1.0052408
0.97615046
0.94462487
0.91760038
0.90155831
0.89869752
0.91176499
0.93783079
0.97121802
1.0035749
1.0313315
1.0509008
1.06088
1.0601315
1.0527007
1.0413825
1.0289372
1.0161775
1.0074938
1.0050983
1.0103429
1.0215543
1.0396172
1.0620249
1.0849209
1.102089
1.1116718
1.1112942
1.1004848
1.0790682
1.0525582
1.0251741
1.000502
0.97891763
0.96355053
0.95463974
0.95202994
0.95379601
0.96217382
0.97671879
0.99525082
1.0117881
1.0231031
1.0244389
1.0131945
0.98867736
0.95748188
0.92666468
0.90295528
0.88890494
0.88732048
0.89608172
0.91137365
0.92775756
0.94527359
0.96337428
0.98178466
0.99756987
1.0106458
1.0182136
1.0178551
1.0071566
0.99051917
0.97269352
0.95906557
0.95202637
0.95542027
0.96809246
0.98649113
1.0044642
1.0205738
1.0329513
1.0412217
1.0442268
1.0450743
1.0445736
1.0426633
1.0367057
1.02792
1.015887
1.0005639
0.98060737
0.95954895
0.93966566
0.92347161
0.91148496
0.9074545
0.91189481
0.92359503
0.93834412
0.9549109
0.97080163
0.98467439
0.99502159
1.0051806
1.0168348
1.0303927
1.0424832
1.0520023
1.0553263
1.0495755
1.0321093
1.0071628
0.97917624
0.95320075
0.93162852
0.91892587
0.91574553
0.92122231
0.93221095
0.94945516
0.97195716
0.99824486
1.0242036
1.0490577
1.0699603
1.084682
1.0904664
1.0901602
1.0853156
1.0769115
1.0627685
1.0438049
1.0189836
0.98847943
0.95297067
0.91922549
0.89324724
0.87993778
0.87962597
0.8929093
0.91566314
0.94232165
0.9660972
0.98636591
1.003142
1.0179931
1.0307054
1.0439129
1.0562365
1.0643787
1.0626245
1.0504713
1.0280886
0.99871939
0.96647152
0.94011213
0.92536097
0.92469678
0.934976
0.95375936
0.97562411
0.99596666
1.0107549
1.022746
1.0343719
1.0475644
1.0601923
1.07189
1.0786311
1.0765705
1.0622604
1.0397525
1.0140049
0.99102188
0.9739365
0.96727818
0.97057994
0.98086219
0.99246908
1.004247
1.0149064
1.02449
1.0318229
1.0389879
1.0450346
1.0476531
1.0423219
1.0291843
1.0084689
0.98276123
0.95488965
0.93242854
0.9199349
0.91923033
0.92712525
0.94194282
0.95935442
0.97602802
0.98925721
1.0022779
1.0174646
1.035977
1.0546169
1.071442
1.0814575
1.0806875
1.0664353
1.0443302
1.0210421
1.0036421
0.99490984
0.99790195
1.0094498
1.0236101
1.032381
1.0337842
1.0271095
1.0143222
0.99703876
0.98045313
0.96650685
0.95531633
0.9440607
0.93393094
0.92511198
0.91886617
0.91537472
0.91865011
0.92945367
0.94635525
0.96408097
0.97985918
0.98913596
0.98877284
0.97662207
0.95720669
0.93574407
0.91833543
0.90854248
0.91168628
0.92830769
0.95596948
0.98833701
1.0225106
1.0541874
1.0802338
1.0970462
1.1062235
1.1078004
1.1016583
1.0858549
1.0627859
1.0340735
1.0027417
0.97134447
0.94692121
0.93362907
0.93306569
0.94174525
0.9574284
0.97456534
0.98798221
0.99275041
0.99061541
0.98360907
0.97429991
0.96270023
0.95114673
0.93921802
0.92652075
0.91219169
0.90080448
0.89604859
0.90082172
0.91397416
0.93549506
0.96126261
0.98631722
1.0048555
1.017135
1.0237256
1.0261381
1.0238011
1.0190513
1.0115415
1.0008049
0.98550186
0.96985388
0.95711423
0.95027981
0.94916488
0.95554375
0.96732936
0.98142728
0.99341647
1.0037665
1.0123088
1.0193031
1.0230759
1.0248861
1.0236694
1.0182842
1.0067156
0.991839
0.97581468
0.96116651
0.94845639
0.94117933
0.94004594
0.9448169
0.95311592999999994
0.96580536
0.98178125
0.99946862
1.0151387
1.028582
1.0379425
1.041724
1.0375407
1.0280295
1.0152181
1.0018872
0.98905871
0.98087821
0.97761888
0.97700171
0.97298224
0.96334057
0.94587104
0.921793
0.89420485
0.87213837
0.86172733
0.86481978
0.87596444
0.8892844
0.896481
0.89276919
0.87783872
0.86088044
0.85107181
0.85426508
0.86769778
0.88576759
0.89799629
0.89657109
0.87933003
0.85632553
0.84050262
0.84295539
0.86545724
0.90365034
0.94433684
0.97342519
0.98093454
0.97027719
0.9513366
0.9369921
0.93502565
0.94975187
0.97584733
1.0037079
1.0228273
1.0314967
1.0316131
1.0280485
1.0233036
1.0203908
1.0169098
1.0088274
0.99182893
0.96887334
0.94453344
0.92450712
0.91122084
0.9076737
0.91210913
0.92121099
0.93036733
0.94050118
0.95205985
0.96510985
0.97624814
0.98383225
0.98399505
0.97440107
0.95444022
0.93080248
0.91047757
0.89951498
0.89889914
0.90893572
0.92510048
0.94199136000000006
0.95412454
0.96286368
0.97017922
0.97844741
0.98678079
0.99545788
1.001081
1.0001056
0.98918999
0.9722979
0.95424308
0.94053806
0.93324337
0.93563672
0.94598761
0.96064972
0.97411633
0.98644496
0.99756965
1.008283
1.0172473
1.0258325
1.0323526
1.0344552
1.0284575
1.0161101
0.99901043
0.97971743
0.95908242
0.94155664
0.92903314
0.92264217
0.92115513
0.92651235
0.93772398
0.95222633
0.96433607
0.97182059
0.9717284
0.96337351
0.94728338
0.93057798
0.91972388
0.92008778
0.93236405
0.95724374
0.99013751
1.0244047
1.0517751
1.0698395
1.0772976
1.0755539
1.0660631
1.0545014
1.0439623
1.0359642
1.0288759
1.0242927
1.0221705
1.0229877
1.0259566
1.0338956
1.0465542
1.0616745
1.0733916
1.0790709
1.0750212
1.0599009
1.0339141
1.0044909
0.97892203
0.96380149
0.96103792
0.97231548
0.99341025
1.0172321
1.03439
1.0412159
1.0357233
1.0196412
0.99573208
0.97181721
0.95294678
0.94161623
0.93561446
0.93460247
0.93591516
0.93770966
0.93801645
0.94027378
0.94623055
0.9562467
0.96665292
0.97593157
0.98003863
0.9761744
0.96256503
0.94476298
0.92844597
0.91906083
0.91796459
0.92726929
0.94427325
0.96479263
0.98326288
0.99986995
1.0144906
1.027503
1.0367546
1.0430046
1.0442014
1.0385817
1.0243087
1.0061421
0.98903796
0.97824797
0.9755217
0.98370803
1.0004011
1.020635
1.036788
1.0463723
1.0471951
1.0394409
1.0233614
1.0044562
0.98653797
0.9726174
0.96257959
0.95914812
0.96210397
0.97023518
0.97985295
0.99094795
1.0016536
1.0101789
1.0132639
1.0123548
1.0078883
1.001039
0.99176187
0.98427201
0.98073004
0.98232308
0.9871394
0.99614251
1.0077523
1.0201576
1.0300429
1.0387487
1.0461069
1.051862
1.0537503
1.0531445
1.0496952
1.0436958
1.0349715
1.0281447
1.0264342
1.0321962
1.0442253
1.062921
1.084784
1.1051387
1.1176738
1.1216893
1.1166257
1.1038089
1.0840049
1.0628899
1.0441852
1.0307814
1.0224369
1.0216431
1.0275456
1.0378508
1.0475548
1.0555977
1.0598651
1.0596355
1.0539392
1.0471059
1.0416455
1.0387782
1.0357786
1.0322559
1.0250272
1.011314
0.98816952
0.95933995
0.92871375
0.90094063
0.87817823
0.86492895
0.86162034
0.86686015
0.87657754
0.89100408
0.90906062
0.93013569
0.95192156000000006
0.97624496
1.0027869
1.0309022
1.0577323
1.0843214
1.1088896
1.1285387
1.1377425
1.1355481
1.1207013
1.0947886
1.0609305
1.0283886
1.0046518
0.99474544
0.99804887
1.0134883
1.0354875
1.0581146
1.0757063
1.0891845
1.0996512
1.1083889
1.1133632
1.1148353
1.1099882
1.0965336
1.0725367
1.0437291
1.016377
0.99702929
0.98812594
0.9926514
1.0078474
1.0281248
1.0452919
1.0569057
1.0617305
1.0613498
1.0570358
1.0541962
1.0547514
1.0580073
1.0590332
1.0560631
1.0459926
1.0275727
1.0000975
0.96893587
0.9378087
0.90920374
0.88179844
0.85698247
0.83400388
0.81351772
0.79682777
0.79135482
0.80284332
0.83451076
0.88323934
0.94517929
1.0112402
1.0718473
1.1181804
1.1501003
1.1697673
1.181704
1.1885178
1.1949763
1.2012164
1.2054547
1.203933
1.1981402
1.1894756
1.1803164
1.1709318
1.1641976
1.1590998
1.1529673
1.1408312
1.1229131
1.0993697
1.072293
1.0433035
1.0185581
1.0014164
0.993387
0.99203874
0.99722361
1.0058281
1.01451
1.0188407
1.0196773
1.0175116
1.0136579
1.0078374
1.0031994
1.0005809
0.99997794
0.99904845
0.99897308
0.99932167
0.99963593
0.99759264
0.99496151
0.9916348
0.98767273
0.98159682
0.97678587
0.97458664
0.97588635
0.97886532
0.9854069
0.99459601
1.0051597
1.0140868
1.0228649
1.0309729
1.0376228
1.0399473
1.039263
1.0352259
1.0282446
1.0179483
1.0090024
1.0042174
1.005444
1.0110702
1.0218573
1.0354204
1.0488259
1.0577212
1.0628122
1.0639889
1.0617164
1.0547182
1.0456266
1.0349194
1.0229622
1.0085625
0.99550513
0.98633515
0.98357806
0.98694474
0.99876081
1.0172247
1.038279
1.0546471
1.0631919
1.0605943
1.0462889
1.0210771
0.99210378
0.96549864
0.94620578
0.93486727
0.93334319
0.93955718
0.95061837
0.96234284
0.97583158
0.99106993
1.0077531
1.0227453
1.0355188
1.043183
1.0436354
1.0352534
1.0226827
1.0104191
1.0028497
1.0009246
1.0070947
1.0197436
1.036193
1.0522581
1.0691255
1.0868449
1.1051131
1.1203506
1.1318056
1.1361033
1.1305523
1.1126378
1.0868643
1.0579102
1.0307934
1.0073193
0.9912137
0.98215686
0.97863741
0.97731097
0.97989473
0.9866174
0.99704673
1.0073052
1.0159327
1.0188434
1.0126069
0.99418167
0.96756119
0.93739028
0.90912272
0.88553569
0.87118796
0.86650503
0.87029611
0.87916689
0.89410086
0.91452729
0.93955074
0.96562986
0.99264015
1.0185545
1.0421508
1.0616651
1.0807502
1.1009465
1.121989
1.1390755
1.1499095
1.150183
1.137924
1.113248
1.0845163
1.0597923
1.045677
1.0428687
1.0514793
1.0661596
1.0806135
1.0884749
1.0909235
1.0900433
1.0885065
1.085402
1.0813569
1.0730611
1.0571213
1.0305717
0.9981843
0.96594904
0.94079034
0.92629144
0.92638684
0.93943902
0.96100127
0.98413643
1.0069097
1.0278045
1.0469678
1.0632751
1.0791232
1.0939507
1.1060583
1.1114158
1.1109263
1.1047311
1.0941387
1.0793106
1.065124
1.0540509
1.0477028
1.0448534
1.0476425
1.0553745
1.0666887
1.0780511
1.0901525
1.101887
1.1121554
1.117854
1.1202705
1.1186895
1.1124479
1.0992235
1.0818228
1.0617327
1.0408907
1.0195242
1.0019423
0.99000174
0.98472909
0.98446158
0.99072615
1.0024673
1.0178396
1.0327018
1.0471826
1.0603394
1.0721987
1.0816828
1.0921479
1.1040855
1.116128
1.1231158
1.1233291
1.11383
1.0941039
1.0651581
1.0350787
1.0109188
0.99810914
0.99678558
1.0073656
1.0256113
1.0465791
1.0648184
1.0814831
1.0974985
1.1137675
1.1276923
1.1388541
1.143532
1.138538
1.1213407
1.0970701
1.0714367
1.0505635
1.0368332
1.0335771
1.038886
1.0487659
1.0572164
1.0640086
1.0690721
1.0735699
1.0767517
1.0809683
1.0852134
1.0874226
1.0836907
1.0753024
1.0629957
1.0485664
1.032303
1.0186162
1.0090708
1.0041733
1.0016729
1.003263
1.0084276
1.0164336
1.0245572
1.0338032
1.0430064
1.0506525
1.0533084
1.0521688
1.0472256
1.0392714
1.0279293
1.0177911
1.0114367
1.0108058
1.0148989
1.0257222
1.0419339
1.06109
1.0783763
1.0932632
1.1038
1.1086533
1.1053561
1.0963143
1.0826349
1.0659083
1.046457
1.029126
1.0169631
1.0125326
1.0154535
1.0278175
1.0475423
1.0703071
1.0885135
1.0987619
1.0973418
1.0834145
1.0578221
1.0285763
1.0033184
0.98889021
0.9875023
1.0013119
1.0264775
1.0561282
1.0805877
1.0956793
1.0981782
1.0882603
1.0672392
1.0426906
1.0206987
1.0061922
0.99994741
1.0041258
1.0161757
1.0312779
1.0418247
1.0450497
1.0385101
1.022879
1.0000901
0.97821355
0.96319882
0.95871995
0.96318255
0.97591998
0.99243795
1.0082407
1.0187985
1.0258875
1.0310516
1.0358571
1.038809
1.0407235
1.0394578
1.0332309
1.0202602
1.0054462
0.99335256
0.9883331
0.99082298
1.0026644
1.0211711
1.0421836
1.0597849
1.0738623
1.0840172
1.0907509
1.092552
1.0913726
1.0863081
1.0761961
1.0588583
1.0378391
1.0163731
0.99831316
0.98515127
0.98064287000000006
0.98437826
0.99378236
1.0033079
1.01129
1.0150753
1.013304
1.0042483
0.99132527
0.97681633
0.96302935
0.95017007
0.94198445
0.93986385
0.94465202
0.95495248
0.97290724
0.99804321
1.0287925
1.0605626
1.0919299
1.1190329
1.1381321
1.1447644
1.1403319
1.1265845
1.1070681
1.0845846
1.0656301
1.0533092
1.0482558
1.0468202
1.0474639
1.045999
1.0388643
1.0227517
1.000701
0.97608212
0.95345765
0.93575471
0.92826126
0.93219599
0.94608513
0.96459554
0.98494881
1.0025531
1.0138126
1.0152917
1.0094161
0.99853582
0.98595988
0.97347257
0.96618086
0.96621625
0.97400259
0.98642549
1.0028007
1.0196381
1.0330009
1.0375615
1.0333527
1.0203646
1.0004749
0.97530809
0.95129629
0.93230892
0.92049236
0.91396127
0.91269812
0.91316828
0.91137598
0.90254392
0.8879606
0.86946307
0.85076748
0.83453817
0.82674249
0.82921129
0.84067628
0.85538697
0.87014858
0.88055478
0.88440292
0.88089951
0.87575586
0.87403893
0.87974219
0.89353645
0.91464859
0.93845996
0.96015625
0.97650645
0.98900074
0.99941917
1.0090872
1.0167112
1.0204915
1.0164969
1.0028106
0.98114451
0.95893787
0.94288466
0.93651949
0.93746047
0.94064441
0.93887106
0.92919337
0.91534819
0.90820064
0.91671432
0.94257309
0.9766893
1.00446
1.0111158
0.9924949
0.95934949
0.93518643
0.94119309
0.98317837
1.0428516
1.083008
