0.82581564
0.89924193
1.00301
1.0953632
1.1480927
1.1575419
1.1395296
1.1143566
1.0967426
1.087787
1.0785741
1.0604573
1.0322979
0.99907953
0.96583499
0.93649182
0.90918302
0.87835913
0.83941233
0.79400646
0.74893962
0.71248628
0.69171221
0.68798751
0.69540328
0.703267
0.70453302
0.69993307
0.69983307
0.72231898
0.7851405
0.89370042
1.0325226
1.1745553
1.2858573
1.3412308
1.3361337
1.2890167
1.2286826
1.1796196
1.1562945
1.1565036
1.1669789
1.1731378
1.1699876
1.157643
1.1377981
1.112107
1.0787242
1.0332952
0.97289278
0.90489821
0.84001195
0.78886122
0.75794195
0.74749921
0.75021786
0.75602036
0.76130169
0.76919354
0.78839052
0.82841421
0.8959831
0.98652093
1.083532
1.166051
1.216076
1.2249032
1.1952889
1.1467058
1.1005358
1.0713257
1.0622905
1.0667918
1.0705556
1.0602822
1.0354008
1.0033187
0.97380599
0.95227549
0.93968181
0.92825469
0.90760847
0.87411043
0.83184612
0.78934751
0.75394445
0.73265936
0.72414797
0.72167259
0.71825382
0.71115591
0.70084616
0.69022057
0.68706558
0.69939408
0.73368024
0.79321993
0.87996261
0.98789955
1.1024475
1.2059496
1.2812567
1.3162036
1.3068041
1.265317
1.2086001
1.1529522
1.1096718
1.0833984
1.0695036
1.0577122
1.0415878
1.017166
0.98336469
0.94126407
0.89639765
0.8531576
0.81480618
0.78566505
0.76848725
0.76189228
0.75973697
0.75819853
0.75416585
0.74906221
0.75018033
0.76820892
0.80917131
0.8694373
0.93870275
1.0013437
1.0432953
1.0583919
1.0540059
1.0432703
1.0378851
1.0452169
1.0643988
1.0866959
1.0993312
1.0983563
1.0829377
1.0561193
1.0237967
0.99299922
0.96669217
0.94368475
0.92464626
0.90872753
0.89374642
0.87662572
0.85716259
0.8342334
0.80726395
0.77918814
0.75448138
0.7363999
0.7247859
0.72044795
0.7210032
0.72344584
0.72718712
0.73602023
0.75491233
0.78708173
0.83706905
0.9046996
0.98319379
1.0598882
1.1239728
1.1649966
1.1770852
1.1639475
1.135778
1.1033788
1.0726134
1.0490638
1.0316047
1.0162561
1.0002602
0.98382515
0.96543374
0.94042998
0.90678525
0.86429496
0.81737902
0.77516278
0.75034514
0.74739945
0.758186
0.7667316
0.75767926
0.72729414
0.6897354
0.67780309
0.72304312
0.83820683
1.0073548
1.1903743
1.3373865
1.4100299
1.4013528
1.3332919
1.2429422
1.1635493
1.1151129
1.0957524
1.0893593
1.0812515
1.0652255
1.04318
1.0194566
1.0024103
0.99354457
0.98930257
0.98556922
0.98159244
0.97647052
0.96728668
0.95318609
0.93194262
0.90165776
0.86281899
0.82255416
0.78789801
0.76307634
0.7498973
0.74684662
0.75002424
0.75543896
0.76609773
0.78697692
0.82347747
0.87927847
0.95450416
1.0421224
1.1286198
1.2025341
1.2534579
1.2755751
1.2697174
1.2464088
1.2170963
1.1907959
1.1742665
1.1689784
1.170387
1.1697597
1.1640583
1.1519103
1.1353535
1.1196051
1.110857
1.1099853
1.111013
1.1068773
1.0892548
1.0527268
0.99788153
0.934263
0.87309727
0.82331518
0.79046555
0.77444465
0.76988799
0.76853526
0.76793363
0.76767237
0.76934745
0.77602361
0.79210611
0.8184273
0.85100434
0.88762818
0.9243931
0.95618773
0.97773017
0.98907758
0.98988084
0.98016296
0.96386572
0.94618213
0.93042592
0.91580619
0.90427763
0.89351383
0.87949198
0.85977858
0.83586445
0.81006952
0.78469833
0.76511954
0.75373209
0.74907817
0.7470358
0.74635891
0.74677588
0.75132341
0.76853839
0.80811923
0.87517185
0.96549456
1.0707707
1.1753301
1.2617034
1.3171586
1.3389349
1.3313995
1.3028409
1.2661882
1.2314704
1.2030316
1.1795982
1.1603957
1.1425473
1.1231685
1.1029489
1.0836719
1.0649596
1.0425081
1.015068
0.98032929
0.93809138
0.89227051
0.85043685
0.81798953
0.79530814
0.78123959
0.77189818
0.7639741
0.75768034
0.76021917
0.77887946
0.81670239
0.87216361
0.93813828
1.0031545
1.054256
1.088428
1.106791
1.1136131
1.1146542
1.1155875
1.1170899
1.1155118
1.1108144
1.1028541
1.0915107
1.0763719
1.0602012
1.0428016
1.0219622
0.99764858
0.97076165
0.94160107
0.90896756
0.87662273
0.84703461
0.82262885
0.80642309
0.80139966
0.80619211
0.81524673
0.82528929
0.83583274
0.85162223
0.88189835
0.93828995
1.0237451
1.1276078
1.2288707
1.3024753
1.3291396
1.3033071
1.2414151
1.1691115
1.1106725
1.0800312
1.0776418
1.0906544
1.1012373
1.1003564
1.086844
1.0649269
1.0392208
1.0147355
0.99074282
0.96376765
0.9341218
0.90550441
0.88159448
0.86225115
0.84792999
0.83475244
0.81869432
0.79950587
0.78180736
0.76976565
0.76358166
0.76198632
0.76074687
0.7562658
0.74894477
0.74629041
0.7556408
0.77980654
0.81725181
0.86118129
0.90227903
0.93235
0.95388422
0.97130154
0.98886776
1.0087863
1.030894
1.0508265
1.0630304
1.0680475
1.0683057
1.0658873
1.0603693
1.0511865
1.0343679
1.0061101
0.96806061
0.92592649
0.88607657
0.85184678
0.82661024
0.80858825
0.79382792
0.77975195
0.76702651
0.75649761
0.74763148
0.74124619
0.73685609
0.7338975
0.73312881
0.73950525
0.75669202
0.78471367
0.82148021
0.86224872
0.89980128
0.92536181
0.93810564
0.93871062
0.92925798
0.91296009
0.89428481
0.87460562
0.85213623
0.82817012
0.8037904
0.77998966
0.75754674
0.74007464
0.72793486
0.71850111
0.71010374
0.70190106
0.69363777
0.68518552
0.6809833
0.68249122
0.68771729
0.69260253
0.69408788
0.69071182
0.68485311
0.6865797
0.70767743
0.7565824
0.83400022
0.93468512
1.0447749
1.1460781
1.2243299
1.2723221
1.2893601
1.2783934
1.2498381
1.2120643
1.1704881
1.1286911
1.0906352
1.0580871
1.0306165
1.0099451
0.99564
0.98442979
0.9708473
0.95235279
0.92681885
0.89402052
0.85811636
0.82516885
0.7993981
0.78048563
0.76816136
0.75902456
0.74998356
0.7416466
0.73987497
0.7516271
0.78132492
0.83139829
0.89785625
0.97078317
1.0372519
1.0895815
1.123263
1.1374058
1.1372136
1.1302067
1.1217848
1.1121958
1.1041462
1.0952633
1.0811888
1.0593687
1.0319897
1.0026963
0.97528935
0.95628369
0.94772502
0.94532904
0.93985479
0.92469945
0.8958875
0.85552449
0.81363676
0.78183479
0.76574307
0.76082585
0.75947797
0.75259333
0.73811493
0.7258011
0.73474791
0.78156054
0.86984684
0.9894066
1.1163382
1.2225581
1.2871761
1.3080309
1.2953918
1.2647842
1.2317009
1.2043805
1.1819424
1.1575301
1.1304625
1.1013165
1.0721907
1.045609
1.0236875
1.0047689
0.98495043
0.9645115
0.94411437
0.92347286
0.90055955
0.87530055
0.84688864
0.816095
0.78803871
0.76854105
0.75960868
0.75708578
0.75732596
0.75680581
0.75740729
0.7685283
0.80391721
0.87132352
0.96502716
1.0697585
1.1627696
1.2229327
1.2395617
1.220181
1.1808
1.1380863
1.1050619
1.0852473
1.0727152
1.0567738
1.0347547
1.0074042
0.97891882
0.95462288
0.9380818
0.92618377
0.91072887
0.88701648
0.85397318
0.81576101
0.78024274
0.75739445
0.74993359
0.75159758
0.75242773
0.74426875
0.72680812
0.70995668
0.71510152
0.76020836
0.84954196
0.96940927
1.0934718
1.1906944
1.2379705
1.2337863
1.1938087
1.1414701
1.0962237
1.0695292
1.057918
1.0492429
1.0344952
1.0118308
0.98544677
0.96064264
0.94465294
0.93644503
0.92847498
0.91226775
0.88454692
0.84750566
0.8081178
0.77799977
0.76390938
0.76359142
0.76656753
0.7625846
0.74556778
0.71984634
0.70241709
0.71475258
0.77070918
0.8668148
0.98567196
1.098258
1.17698
1.2084524
1.1995631
1.1689755
1.1354815
1.1134889
1.1041303
1.0984175
1.0851344
1.0615376
1.0295835
0.99363015
0.95936305
0.92970666
0.90389282
0.87895413
0.85751565
0.84067435
0.82698538
0.81284647
0.79526045
0.77262928
0.74732205
0.72837181
0.72286136
0.72987562
0.73901423
0.73836137
0.72051757
0.69119714
0.67216176
0.69078008
0.76381045
0.88432992
1.0264475
1.1509429
1.2237547
1.2326016
1.1922509
1.1317398
1.0780659
1.0482284
1.0403333
1.0395282
1.0297707
1.0072049
0.97675348
0.94751899
0.92807058
0.91978862
0.91586004
0.90548794
0.88498233
0.85501389
0.8205389
0.78834221
0.76416131
0.74854216
0.73758675
0.72887137
0.72063583
0.71286647
0.7075828
0.71082701
0.72786089
0.76184426
0.81441731
0.88334156
0.96112947
1.0354955
1.0974483
1.1393909
1.1578836
1.155684
1.1411834
1.1214086
1.0989331
1.075864
1.0503718
1.0190458
0.97979161
0.93647698
0.89320951
0.85279117
0.81784854
0.78899371
0.76467509
0.74212645
0.72358667
0.71006381
0.70098382
0.69459843
0.68942834
0.68356666
0.67618121
0.67093839
0.67091937
0.6758674
0.68158376
0.6848357
0.68434142
0.68459343
0.69766297
0.73670956
0.80708843
0.89985821
0.99716184
1.074053
1.1102705
1.1003773
1.0558513
0.99638659
0.93988986
0.89937049
0.87581649
0.86130799
0.84575171
0.82639753
0.80432254
0.78270205
0.76579173
0.75500447
0.74753767
0.73779472
0.72541077
0.71122667
0.69732811
0.68609571
0.67943117
0.67572188
0.6706116
0.66254316
0.65156521
0.63945946
0.62875016
0.6236886
0.62476836
0.62819222
0.62963842
0.62614395
0.61760421
0.60705221
0.60608524
0.62553836
0.6714677
0.74275646
0.83109238
0.919863
0.98927735000000006
1.0272725
1.0299718
1.002522
0.95674699
0.9093245
0.87232229
0.85015268
0.8415547
0.84065649
0.83954136
0.83111736
0.81583404
0.79666651
0.77795103
0.7638244
0.75709135
0.75646886
0.75765183
0.75916672
0.76173338
0.76862315
0.78426507
0.81466345
0.86043405
0.91499921
0.96882566
1.0125953
1.0393166
1.0452245
1.0367152
1.0214085
1.0046659
0.98774815
0.96962584
0.94593177
0.9116558
0.868874
0.82324264
0.78161132
0.74891848
0.72950853
0.72119
0.71730478
0.71254436
0.70463501
0.69428855
0.68353421
0.67841142
0.68081244
0.68817497
0.69600208
0.70222921
0.70842488
0.72103014
0.7531285
0.81572719
0.91099607
1.0286438
1.1527321
1.2626595
1.3407899
1.3811787
1.3891066
1.3749725
1.346935
1.3139952
1.2780578
1.2375886
1.1926837
1.1484746
1.1105002
1.0811837
1.0615719
1.0463759
1.0258071
0.99037481
0.93930529
0.87886794
0.82099995
0.77990677
0.76368044
0.76812423
0.77704883
0.7748197
0.75276515
0.71819423
0.6952509
0.71563597
0.80005334
0.94439705
1.1207865
1.2850931
1.395548
1.4305519
1.3992881
1.3309174
1.2588341
1.2081046
1.1852948
1.1800214
1.1744504
1.1607013
1.1376781
1.1101694
1.0843083
1.0630074
1.0419953
1.0134997
0.97555104
0.93033827
0.88322175
0.83982762
0.80596301
0.78199418
0.7644771
0.75139644
0.74262091
0.73844827
0.73700774
0.74085863
0.74981972
0.76179836
0.7743809
0.78730232
0.79946269
0.80857225
0.81630211
0.82438251
0.83326813
0.8415731
0.85041478
0.85788653
0.8610203
0.86020409
0.85673514
0.8503084
0.83778708
0.82042424
0.79860663
0.77455134
0.75337392
0.74104435
0.7380218
0.73819303
0.73624831
0.72976162
0.72464067
0.73597484
0.78455383
0.88162621
1.019706
1.1732344
1.3059148
1.384885
1.3944747
1.347018
1.2720797
1.2026824
1.161274
1.1526637
1.1632877
1.1705626
1.159367
1.125711
1.0760092
1.0211582
0.9736716
0.93831151
0.91209275
0.89049586
0.8701246
0.84910646
0.82586254
0.80439724
0.78657313
0.77224486
0.76054766
0.75189654
0.74543136
0.73907041
0.73362002
0.72963636
0.72692824
0.72442109
0.72300208
0.7220745
0.72038396
0.7195279
0.72289011
0.73407851
0.75477689
0.78981653
0.83862941
0.89669928
0.95825092
1.0184707
1.0712536
1.1098341
1.1336141
1.1437315
1.1424239
1.1324159
1.1205025
1.1106688
1.103704
1.1000955
1.0989391
1.0967151
1.0872877
1.0688767
1.0396439
0.99961628
0.951951
0.90292406
0.85763408
0.81821237
0.78682767
0.76324359
0.74588731
0.73304746
0.7257132
0.72337349
0.72382402
0.72603663
0.730835
0.74158568
0.76359903
0.80619944
0.87357844
0.96144263
1.057428
1.1454961
1.2097399
1.2403441
1.2409602
1.2221889
1.1955027
1.167499
1.1403477
1.1086911
1.0653354
1.0094428
0.94669609
0.88600362
0.83427102
0.7982349
0.77653924
0.7626681
0.75004699
0.73614742
0.72064222
0.70432411
0.69102025
0.68229729
0.67671519
0.67090861
0.66428116
0.65665197
0.64898966
0.64536764
0.65057652
0.66703906
0.69229417
0.72479926
0.75910422
0.78805993
0.80628847
0.81358507
0.8114517
0.8014256
0.78926423
0.77858359
0.77003794
0.76211365
0.75650159
0.75327751
0.75184314
0.75412209
0.76222439
0.7759941
0.79172041
0.80823749
0.82161432
0.82732533
0.82280396
0.80962328
0.7912641
0.77208348
0.75900952
0.75634023
0.76410651
0.77865143
0.79804402
0.82143354
0.85057973
0.89186906
0.95193032
1.0306844
1.1164934
1.1954536
1.2506993
1.2704732
1.2542302
1.214119
1.1664454
1.1238471
1.0945704
1.0780895
1.0679489
1.0565881
1.0424124
1.0254515
1.0053622
0.98201465
0.95434184
0.92063497
0.8798983
0.83805031
0.80105952
0.77273429
0.7534988
0.74133359
0.732017
0.72321834
0.72175242
0.74028877
0.79278027
0.8873676
1.0244526
1.1878033
1.3462012
1.4655268
1.5199993
1.5001446
1.4156355
1.2980489
1.1824364
1.0952484
1.0472836
1.0340204
1.0386882
1.042329
1.0371134
1.0237282
1.0073861
0.99203958
0.97987799
0.96648362
0.94514369
0.91429729
0.87785135
0.84208296
0.81097837
0.78837941
0.77207293
0.75858909
0.74916914
0.75284821
0.78514353
0.86310503
0.99766249
1.1818528
1.3870716
1.5687382
1.6811488
1.6937871
1.6057812
1.4499401
1.2774238
1.1361901
1.0519082
1.0245232
1.0300592
1.039933
1.0380281
1.0243954
1.0065069
0.98838159
0.96704038
0.93368588
0.88551991
0.83438187
0.80349599
0.8093295
0.84566566
0.88012194
