0.75581837
0.78813072
0.83787219
0.87003016
0.87043016
0.8490873
0.82720086
0.82250742
0.83797681
0.86311802
0.88470821
0.89701675
0.90176202
0.90301517
0.90532418
0.90953156
0.91356334
0.91701959
0.92134892
0.92672954
0.93050121
0.92983793
0.92212347
0.90613548
0.88646468
0.86891717
0.85668757
0.84985107
0.84656174
0.84345333
0.83796543
0.83207856
0.82744912
0.82378409
0.82280572
0.82403806
0.82562238
0.82766665
0.83216763
0.83952901
0.8475891
0.85585519
0.86152456
0.86145842
0.85753926
0.85331352
0.85141424
0.85350432
0.86081345
0.87129094
0.8804561
0.88885194
0.89610027
0.90102684
0.90432813
0.90645923
0.90610226
0.90182883
0.89558596
0.8881382
0.87849902
0.86874418
0.85927837
0.84893548
0.83794595
0.82820641
0.82058455
0.81464121
0.81260844
0.81404279
0.81616751
0.81850453
0.82054799
0.82127761
0.82088566
0.82177185
0.82469669
0.82773694
0.83214681
0.83683605
0.83967539
0.84123347
0.84315077
0.8458372
0.84875831
0.85306787
0.85756727
0.85920164
0.85904248
0.85786964
0.85577752
0.85419787
0.85513607
0.85812997
0.86053111
0.86267042
0.86312566
0.85951186
0.85309475
0.84560341000000006
0.83778894
0.83050977
0.82573625
0.82313622
0.81978546
0.81663845
0.81333225
0.80907052
0.80563455
0.80531304
0.80846963
0.81392867
0.82177878
0.82973961
0.8338765
0.83460083
0.83285826
0.82986935
0.82867601
0.8326469
0.84176454
0.85251774
0.86343918
0.87158136
0.87421573
0.87350912
0.87250888
0.87248094
0.87331531
0.87489356
0.87473422
0.86895078
0.85967673
0.84896557
0.83836662
0.83074962
0.82767199
0.82738242
0.82658007
0.82482865
0.82145807
0.81562907
0.81063175
0.8082551
0.80764507
0.80771213
0.80813592
0.80824327
0.80783301
0.81091494
0.81908014
0.83019427
0.84226953
0.8519377
0.85585837
0.85409449
0.85133858
0.85165151
0.85534721
0.86367039
0.87347807
0.88008172
0.88264733
0.88309663
0.88309048
0.88308583
0.88424016
0.88453554
0.8801865
0.87227437
0.86251853
0.85214905
0.84302605
0.83684968
0.83274618
0.82820272
0.82438761
0.82122725
0.81728251
0.81354335
0.81051528
0.80755654
0.80477023
0.80430595
0.80661028
0.80934056
0.81325285
0.81701877999999994
0.81864703
0.81918911
0.8208435
0.82432792
0.82896849
0.83539977
0.84189725
0.84516835
0.84629762
0.84626174
0.84529288
0.84471954
0.84634838
0.84982817
0.85314222
0.85747552
0.86212873
0.8647939
0.865824
0.86527328
0.86215706
0.85633938
0.85000395
0.84412088
0.83753362
0.83257491
0.8292401
0.82600061
0.82321934
0.8218286
0.82156357
0.82162471
0.82329856
0.82587043
0.82666433
0.82641317
0.82534069
0.82317419
0.82130546
0.82209995
0.8257529
0.83010087
0.8352699
0.8393919
0.83973346
0.83752321
0.83482839
0.83284785
0.83262884
0.8357936
0.84112163
0.84451783
0.84605848
0.84477042
0.83960544
0.83251367
0.82613958
0.82122584
0.81709082
0.81472573
0.81306342
0.80946835
0.80537072
0.80181423
0.79885668
0.79732872
0.79830589
0.80073632
0.80212205
0.80348762
0.80482289
0.80529506
0.80687663
0.81092577
0.81696985
0.8242117
0.83284202
0.84108605
0.84516037
0.84595915
0.8440501
0.84047692
0.83897441
0.8425786
0.85029713
0.85791666
0.86275015
0.86232423
0.85610462
0.85003789
0.84901489
0.85315628
0.85880784
0.8604886
0.85266475
0.83372116
0.8112093
0.79357447
0.78529696
0.78747138
0.795151
0.80011744
0.79719381
0.78828739
0.77821007
0.7706135
0.77044643
0.77693867
0.78543139
0.79296065
0.79854486
0.80166946
0.80229128
0.80284916
0.80386233
0.80410942
0.80595685
0.81052739
0.81683394
0.8238944
0.83111136
0.83684217
0.83954184
0.84232848
0.84690945
0.85250723
0.85928964
0.86558444
0.86810511
0.86506259
0.85839548
0.85021526
0.84121341
0.83533316
0.83322569
0.83275083
0.8327619
0.83259835
0.83108774
0.82761915
0.82474297
0.82348513
0.82253983
0.82299835
0.82440518
0.82506475
0.82481404
0.82502706
0.82580857
0.82574889
0.82624398
0.82687006
0.82600291
0.82512402
0.82560478
0.82714869
0.82908019
0.83199082
0.83503246
0.83590452
0.83711547
0.83944372
0.84174959
0.84391873
0.84555214
0.8449549
0.84091136
0.83605337
0.832026
0.82835287
0.82688731
0.82719223
0.82690833
0.82506791
0.82269732
0.82037268
0.81789158
0.81786242
0.8201731
0.82221519
0.82357732
0.82398324
0.82302429
0.82178781
0.8234513
0.82897896
0.83583299
0.84405184
0.85150208
0.85574599
0.85786686
0.86045548
0.86455346
0.86938541
0.87521232
0.87998664
0.88049151
0.87841702
0.87557894
0.87254491
0.86995931
0.86814179
0.8650531
0.85762609
0.84760129
0.83645315
0.82479581
0.81560496
0.81032596
0.80762297
0.80562614
0.80447991
0.80370395
0.80172501
0.80145239
0.80361152
0.80676506
0.81053393
0.81468362
0.8181464
0.82039669
0.82419908
0.83064926
0.83810969
0.84692332
0.85538776
0.86070739
0.8625404
0.86321429
0.86463398
0.86735453
0.87407434
0.88409391
0.89403705
0.9030059
0.91024555
0.91453464
0.91574318
0.91576729
0.91480458
0.91067387
0.90499158
0.89763044
0.88764231
0.87650746
0.86643247
0.85814567
0.85132155
0.84725633
0.84496586
0.84145792
0.83723556
0.8323561
0.82629787
0.82006148
0.81567177
0.81343702
0.81201129
0.81289398
0.8155768
0.81788874
0.8202791
0.82285008
0.82453586
0.82490179
0.82551631
0.82645621
0.82564183
0.82514947
0.82535567
0.82569462
0.82771638
0.8325413
0.83833166
0.8414874
0.84105077
0.83602181
0.82624345
0.81715685
0.81273743
0.81285758
0.81502695
0.81601917
0.81238597
0.80314531
0.79428244
0.79090761
0.79394793
0.80247931
0.81200119
0.81698387
0.81576971
0.81269049
0.81255958
0.81656993
0.82593588
0.83680042
0.84367286
0.84551725
0.84506387
0.84538348
0.84807257
0.85452034
0.86219094
0.86647771
0.86793253
0.86834019
0.86926741
0.8725913
0.87922189
0.88666626
0.89044799
0.89026754
0.88558038
0.87566637
0.86331749
0.85130809
0.84092045
0.83317956
0.82989626
0.83002535
0.82932219
0.82725697
0.82276139
0.81571385
0.8097356
0.80895912
0.81415359
0.82255565
0.83169011
0.83768257
0.83747587
0.8346448
0.83349382
0.8362009
0.84317184
0.85285221
0.86115195
0.86422848
0.86441809
0.86454864
0.8661264
0.87144675
0.87976176
0.88732156
0.89096452
0.8908976
0.88755332
0.88021455
0.87215614
0.86408984
0.85509851
0.84641785
0.83997657
0.83610999
0.83385911
0.83392183
0.83477487
0.83324619
0.83026188
0.82653641
0.8220185
0.81779398
0.81571054
0.81572172
0.81608609
0.81800342
0.82066106
0.8216091
0.82114854
0.81956118
0.81631742
0.81184716
0.80884454
0.80858875
0.80986378
0.81469945
0.82211612
0.82904144
0.83444491
0.83858101
0.84166792
0.8445883
0.85093396
0.86121186
0.87187743
0.88106617
0.88553808
0.8823867
0.87266734
0.86100553
0.85121262
0.84439849
0.84251847
0.84367649
0.84385418
0.84256239
0.84040945
0.83761195
0.83470183
0.83340511
0.83362212
0.83342224
0.83517152
0.83941459
0.84478254
0.85080927
0.85680913
0.86106369
0.86252515
0.86381847
0.86632964
0.8689121
0.87245332
0.87586482
0.87693115
0.87570395
0.87456149
0.87482632
0.87578498
0.87869956
0.8818052
0.88146402
0.87762724
0.87116655
0.86262093
0.85316369
0.84533589
0.83929954
0.83247073
0.82622642
0.82054702
0.81487807
0.81106228
0.81107113
0.81451086
0.81929019
0.8250127
0.82975071
0.8307991
0.83012904
0.82950871
0.82942401
0.8307419
0.83435333
0.83906956
0.84256324
0.84643744
0.85101572
0.85511097
0.85981324
0.86521247
0.86974192
0.87241249
0.87453542
0.87618949
0.87529274
0.87367733
0.87110929
0.86632755
0.86060521
0.85588465
0.85232838
0.84879844
0.8461172
0.84339395
0.83852089
0.83358001
0.82991916
0.82714378
0.82509495
0.8241467
0.82346095
0.82179298
0.82188451
0.82461027
0.8282718
0.83244543
0.83575317
0.83625752
0.83411934
0.83284747
0.83478775
0.8390251
0.84650871
0.85475478
0.86003174
0.86205891
0.86274099
0.8635841
0.8652816
0.8697478
0.87585965
0.88013457
0.88289056
0.88404728
0.88275985
0.87948412
0.87567046
0.87126415
0.86506049
0.85937452
0.85454238
0.84879536
0.84249735
0.83566919
0.82769953
0.81933761
0.81373629
0.81216922
0.81252533
0.81499745
0.81713357
0.81582731
0.81152849
0.80669638
0.80312917
0.8016489
0.80429546
0.81031585
0.81666823
0.82375964
0.83105746
0.83674911
0.84015756
0.84197281
0.84236961
0.84149696
0.84339515
0.84952017
0.85779579
0.86670302
0.87330641
0.87427399
0.86909252
0.86143087
0.85436716
0.84793707
0.84401769
0.84084204
0.83520283
0.8271311
0.8187465
0.81168342
0.80665584
0.80548338
0.80724774
0.80902203
0.81155168
0.81499319
0.81822989
0.82070578
0.82242129
0.82220836
0.81870622
0.8149064
0.81268904
0.81194212
0.81385543
0.81786012
0.82140037
0.82262889
0.82249828
0.82151697
0.81866772
0.81681777
0.81640608
0.81606414
0.8161455
0.81726086
0.81852453
0.81847192
0.81812428
0.81686962
0.81254982
0.80691492
0.80117061
0.79557483
0.79139595
0.79038235
0.79193427
0.7933815
0.79496548
0.79569188
0.79409458
0.79231775
0.79255367
0.79519261
0.79982695
0.80666107
0.81394771
0.81833546
0.821339
0.82360991
0.82497319
0.82686618
0.83035106
0.83440305
0.83726812
0.84000182
0.84267012
0.84406164
0.8463404
0.85011024
0.85387509
0.8565938
0.85818143
0.85750582
0.85290595
0.84684944
0.84052113
0.83348675
0.82747853
0.82333882
0.82011407
0.81698594
0.81513562
0.81459971
0.81352661
0.8138453
0.81532458
0.81613899
0.81626971
0.8164056
0.81634603
0.81576347
0.81686151
0.81982232
0.82241474
0.82536061
0.82840054
0.83054765
0.83264607
0.83692805
0.84369069
0.85089461
0.85887637
0.86589513
0.86925724
0.87018418
0.87053895
0.87098124
0.87177258
0.8738559
0.87582797
0.87422314
0.87039081
0.86488006
0.85776213
0.85115616
0.84705851
0.84523946
0.84424004
0.84474893
0.84594126
0.84561659
0.84525994
0.845546
0.84593249
0.84681957
0.84934085
0.85291507
0.8555692
0.85852524
0.86147535
0.86287013
0.86394558
0.86553007
0.86689455
0.86739061
0.86801332
0.86834519
0.86613812
0.86349113
0.86070717
0.85678153
0.8526399
0.84947355
0.8469103
0.84399712
0.84232397
0.84163002
0.83961688
0.83734237
0.8347176
0.83047688
0.82483394
0.81949384
0.8148746
0.81002279
0.80702576
0.8057965
0.80442059
0.80360763
0.80384234
0.80448587
0.80542025
0.80832262
0.81318744
0.81767469
0.82323313
0.82928588
0.83410018
0.83822731
0.84283056
0.84768994
0.85194058
0.85700229000000006
0.86239222
0.86579504
0.86853621
0.87106606
0.87266987
0.8737673
0.87568976
0.87800776
0.87874789
0.8791255
0.87859894
0.87524373
0.87012277
0.86431129
0.85780857
0.85101095
0.84599367
0.84301763
0.83987974
0.8380223
0.83703228
0.83547395
0.83409412
0.83416559
0.83541813
0.8366999
0.83897437
0.84152919
0.84216305
0.84250753
0.84349823
0.84481917
0.84694508
0.85080648
0.85527323
0.857685
0.85899981
0.85900926
0.85665148
0.85411393
0.8531532
0.8535416
0.85461184
0.85700572
0.85967777
0.85973789
0.85906127
0.85791892
0.8552847
0.85191019
0.84868642
0.84495769
0.83973981
0.83501667
0.83139133
0.82767902
0.82569895
0.82570541
0.82634629
0.82734848
0.82961335
0.83272495
0.83505806
0.83817219
0.84189805
0.8447284
0.84798007
0.85254863
0.85767393
0.86256339
0.86806721
0.87381438
0.87787969
0.8827175
0.8885518
0.89349386
0.89692914
0.89864478
0.89785285
0.89447874
0.89176712
0.89069784
0.88875312
0.88535107
0.8784664
0.86613718
0.85001973
0.83492057
0.82431852
0.81849383
0.81828772
0.8206952
0.8209562
0.81848934
0.81452275
0.81037394
0.80769778
0.80880367
0.81320481
0.81769654
0.82312311
0.82904037
0.83429975
0.83983347
0.84659256
0.85367788
0.85953455
0.86529176
0.87085625
0.87476628
0.87915146
0.8845509
0.8894432
0.89298349
0.89545614
0.89631229
0.89464215
0.89350503
0.89360593
0.89271793
0.8901421
0.88457685
0.87450371
0.86076468
0.84781202
0.83864687
0.8323752
0.82990479
0.8287501
0.82536675
0.81979659
0.81428043
0.81019819
0.80750678
0.80734587
0.80849745
0.80839384
0.80909454
0.81233953
0.81806398
0.82587718
0.83510267
0.84333587
0.84802538
0.85173078
0.85622075
0.86131536
0.8681327
0.8758982
0.88204813
0.88540338
0.88831517
0.89275849
0.89843079
0.90772686
0.91902918
0.92798551
0.93222367
0.93102318
0.92413426
0.91254786
0.90079139
0.89158238
0.88472605
0.88191588
0.88236322
0.88317335
0.88261289
0.88088639
0.87791451
0.87323514
0.86982365
0.86834322
0.86692921
0.86551803
0.86361036
0.8600605
0.85510852
0.85152083
0.85051028
0.85037602
0.85251675
0.8558352
0.85809977
0.85984069
0.86256631
0.86621652
0.86952421
0.87316446
0.87594323
0.87544186
0.87390005
0.872932
0.87245607
0.87260232
0.87352463
0.87344913
0.86991058
0.86504929
0.86000388
0.85435141
0.84968739
0.84627893
0.84259137
0.83781766
0.83377674
0.83142745
0.82979281
0.83146453
0.83640444
0.84279569
0.85058893
0.85997392
0.86953019
0.87715914
0.88336222
0.88750182
0.88797198
0.88731633
0.88701862
0.88656243
0.88566744
0.88464065
0.88261095
0.87835945
0.8750034
0.87385137
0.87360154
0.87431354
0.87476012
0.87254407
0.86689472
0.86041454
0.85487784
0.84945143
0.84621153
0.84414389
0.84062863
0.83568951
0.830818
0.82675078
0.82362279
0.82341905
0.82578314
0.82827555
0.83188783
0.83668909
0.84144332
0.84585865
0.85047573
0.85449518
0.85641073
0.85867419
0.86219079
0.86605861
0.87135147
0.87786122
0.88354855
0.88690263
0.8887738
0.88923162
0.8880047
0.88648179
0.88427945
0.88136469
0.88025572
0.88259994
0.88713344
0.89025885
0.88805569
0.87783785
0.86178553
0.84809245
0.84258232
0.84414803
0.84577312
0.83888306
0.82115401
0.80141815
0.79530929
0.81017924
0.83683937
0.85468556
0.84470265
0.80754335
0.76962584
0.76644083
0.8129835
0.88408221
