0.66935246
0.69356112
0.73341274
0.7584643
0.75970213
0.74937918
0.74570716
0.75981199
0.78746212
0.81478792
0.83167127
0.83852466
0.8426612
0.8509839
0.86595546
0.88330816
0.89548295
0.90007787
0.89913273
0.89614447
0.89492908
0.89713285
0.90075582
0.90207949
0.89922441
0.89115679
0.87713947
0.85991117
0.84264094
0.82650796
0.81378165
0.80442133
0.79630056
0.7886086
0.78263965
0.77889646
0.7766903
0.77731381
0.77997388
0.78245437
0.78603156
0.7915843
0.79842275
0.80633782
0.81542952
0.82436731
0.83174296
0.83971123
0.84865614
0.85624466
0.86276485
0.86708119
0.86749985
0.8653993
0.86364152
0.86271574
0.86075032
0.85707456
0.84920291
0.83447145
0.81660168
0.79941436
0.78491637
0.7747877
0.76872795
0.76363503
0.75670924
0.74926561
0.74289921
0.73809957
0.73819396
0.7434943
0.75179106
0.76229275
0.77467192
0.78771722
0.80054285
0.81416079
0.82787096
0.83887612
0.84835949
0.85587019
0.85988842
0.86161799
0.86259752
0.86289056
0.86263214
0.8636108
0.86550393
0.86564644
0.86514656
0.86306219
0.85700037
0.8475534
0.83572073
0.8216006
0.80617364
0.79221612
0.78054045
0.76967975
0.76090679
0.7535396
0.74573796
0.73873421
0.73381735
0.73094687
0.73043874
0.73364381
0.74049465
0.74993821
0.76400475
0.78248085
0.80252976
0.82312618
0.84212419
0.85658464
0.8660925
0.87293455
0.8785813
0.88313604
0.88885787
0.89504342
0.89856124
0.89969682
0.89826765
0.8930753
0.8845275
0.87417964
0.86203068
0.84738421
0.8327168
0.81893852
0.80511614
0.79325777
0.78377606
0.77530171
0.76767821
0.7616366
0.75690019
0.7530425
0.752071
0.75421556
0.75752064
0.76292157
0.77013593
0.77797905
0.78736199
0.79960922
0.81387047
0.82803147
0.84174656
0.85332006
0.86018048
0.86518705
0.87012447
0.87477472
0.87974545
0.88452319
0.88632024
0.88281567
0.87534678
0.86488094
0.85086857
0.83692502
0.823979
0.81083733
0.79821737
0.78690747
0.7763733
0.76637434
0.75851439
0.75286648
0.74782125
0.74536599
0.74585828
0.74833093
0.75401759
0.76369565
0.7763215
0.79084127
0.80746826
0.82490145
0.8405091
0.85546145
0.86930515
0.8800166
0.88850032
0.89547584
0.90049886
0.90416985
0.90844875
0.91284537
0.91439672
0.91311124
0.90733432
0.89485913
0.87823717
0.86043657
0.84294378
0.82724256
0.81473982
0.80444456
0.7943017
0.78574722
0.77906648
0.7730095
0.76891577
0.76695984
0.76606605
0.76675701
0.77090058
0.77893252
0.78992723
0.80464327
0.82155534
0.83726874
0.8520984
0.86565371
0.87635056
0.88437206
0.89095677
0.89618031
0.89994433
0.90493575
0.91110961
0.91485437
0.91549463
0.91082935
0.89846732
0.88014348
0.85994444
0.84059666
0.82330679
0.81017413
0.80027776
0.79034379
0.78155358
0.77413651000000006
0.76712332
0.76113226
0.75667206
0.75282347
0.74924792
0.74856977
0.75251775
0.76061704
0.77507518
0.79479728
0.81615067
0.83740834
0.85743651
0.87471404
0.88904384
0.90264855
0.91591159
0.9267294
0.93654379
0.94479226
0.94982521
0.95327767
0.95653847
0.95860703
0.95789699
0.95396571
0.94511819
0.92952239
0.9107929
0.89159837
0.87267235
0.85606515
0.84202361
0.82881376
0.81583546
0.80477749
0.79645218
0.79026246
0.78783604
0.78840212
0.78954286
0.79197396
0.79639648
0.80239431
0.81022592
0.82067298
0.83250781
0.84336574
0.85425721
0.86469064
0.87254168
0.87918004
0.8848938
0.88837058
0.88980891
0.89050868
0.88991562
0.88637915
0.88130745
0.87415455
0.86265455
0.84895555
0.83442379
0.81915167
0.80471533
0.79290541
0.78304403
0.77324953
0.76431911
0.75608273
0.74760698
0.74229729
0.7421381
0.74671786
0.75581915
0.76855568
0.78234301
0.7950742
0.8081621
0.82232822
0.83638304
0.85224947
0.86923689
0.88462204
0.89785838
0.90917912
0.91775806
0.92308088
0.92711234
0.93026552
0.9308309
0.93132493
0.93168604
0.92956999
0.9244727
0.91603774
0.90319709
0.88639183
0.86917507
0.85374649
0.83978231
0.82938541
0.82184279
0.81478628
0.80863544
0.80431912
0.80168111
0.80072371
0.80249926
0.80635335
0.81034775
0.81628166
0.82444621
0.8333832
0.84379109
0.85542245
0.86639146
0.87584708
0.88475899
0.89253262
0.89706521
0.90002944
0.90159775
0.90080393
0.90038089
0.90169055
0.90288499
0.90157238
0.89613353
0.88431406
0.86513221
0.84365106
0.82409475
0.80784758
0.79723045
0.79120253
0.78614992
0.78032984
0.77463768
0.76984883
0.76636358
0.7668555
0.77149919
0.77821357
0.78818065
0.80151691
0.81675378
0.83351614
0.8518009
0.87004251
0.88645026
0.90228333
0.91704864
0.9279262
0.93586036
0.94077376
0.94214272
0.94244759
0.9448457
0.94951397
0.95414157
0.9573414
0.95580879
0.94572989
0.93001369
0.9117444
0.8928639
0.87611463999999994
0.8627058
0.85098517
0.83907043
0.82802602
0.81846421
0.80961735
0.80437468
0.80325815
0.80491659
0.80974438
0.81791773
0.82793998
0.83831255
0.8492937
0.86004624
0.86873216
0.87788303
0.8881447
0.89805224
0.90795858
0.91726475
0.9237506
0.92648292
0.92735938
0.92729074
0.9255495
0.92461967
0.92371102
0.91933781
0.91096294
0.89833909
0.88107962
0.86104616
0.8422937
0.82669985
0.81346315
0.80367418
0.79574176
0.7866826
0.7774137
0.76924177
0.76255765
0.75842009
0.75824351
0.76127362
0.7656371
0.77281876
0.7830497
0.79499018
0.81009884
0.82803932
0.84619297
0.86288769
0.87753698
0.8884865
0.89416159
0.89709418
0.89877057
0.89900378
0.90084255
0.90464944
0.90750685
0.90703166
0.90177125
0.8900893
0.87201443
0.85235501
0.83466849
0.81947573
0.80905578
0.80247402
0.79664643
0.79071544
0.78553163
0.7814151
0.7785773
0.77907351
0.78277984
0.78729173
0.79382545
0.80226981
0.81125523
0.82126292
0.83284941
0.84485853
0.85602561
0.86740064
0.87859826
0.88717335
0.89502899
0.90203643
0.90662357
0.90982522
0.91280364
0.91498612
0.91573782
0.91608643
0.9150177
0.90954819
0.90117936
0.89010843
0.87583005
0.86090816
0.8476796
0.83638955
0.82685824
0.81985566
0.81451332
0.80895021
0.80535507
0.80468503
0.80641375
0.81192859
0.82120597
0.83201
0.84255645
0.85276681
0.86193213
0.8689671
0.87636983
0.88445054
0.89104758
0.89649536
0.90046301
0.90183545
0.90153029
0.90208548
0.90364412
0.90379599
0.90236753
0.89717417
0.88539232
0.86965397
0.85302299
0.83711616
0.82370592
0.8139212
0.80604147
0.79737736
0.78889191
0.78074222
0.77182157
0.76424054
0.75854366
0.75366723
0.75016947
0.74967668
0.75259425
0.75868106
0.76954628
0.78438113
0.80001928
0.8167444
0.83368463
0.84908791
0.86347291
0.87777104
0.89088063
0.90097776
0.90870228
0.91361849
0.91426992
0.91405163
0.9143478
0.91384509
0.91191042
0.90735683
0.89785706
0.88263796
0.8650393
0.847757
0.831001
0.81763182
0.80720937
0.7973032
0.78796133
0.77999643
0.77317292
0.76725903
0.76344966
0.7614272
0.75964221
0.76068355
0.76560224
0.77345709
0.78460831
0.79830334
0.81210453
0.82455562
0.8365665
0.84786382
0.85651376
0.86408128
0.87024173
0.87352507
0.87605518
0.87952426
0.8832625
0.88617627
0.88778143
0.88595137
0.87830953
0.86767102
0.85596967
0.84341815
0.83235678
0.82326691
0.81449835
0.80549154
0.79751803
0.79089741
0.78503241
0.78192749
0.78147681
0.78170717
0.78367612
0.78776983
0.79306554
0.79964982
0.80828944
0.81813663
0.82759186
0.83794208
0.848864
0.85814911
0.86692057
0.87506773
0.88114408
0.88556067
0.8896567
0.89303934
0.89440272
0.89489231
0.8937829
0.88855011
0.88093668
0.87149879
0.85944956
0.84590454
0.83264743
0.82008264
0.80842783
0.80008565
0.79528252
0.79156921
0.78952580000000006
0.78805837
0.78532244
0.78230125
0.7809623
0.78197053
0.78541324
0.79243772
0.80197252
0.81084242
0.82011909
0.82962198
0.83823469
0.84708796
0.85677508
0.86570916
0.87229207
0.87725736
0.88066058
0.8816537
0.88367755
0.88734504
0.89010071
0.89064761
0.88709563
0.87705031
0.86073697
0.84227036
0.82500468
0.80994324
0.79979642
0.79347149
0.78734987
0.78081914
0.7740678
0.76705964
0.76098694
0.75818118
0.75879531
0.76107546
0.76605565
0.77295472
0.7794816
0.78639266
0.79410805
0.80199101
0.81058747
0.82133471
0.83335487
0.84397029
0.85364102
0.86187182
0.86769345
0.87438494
0.88366159
0.89368641
0.90170451
0.90506184
0.90069239
0.88762173
0.87095948
0.85515917
0.84154394
0.83220445
0.82578443
0.81901879
0.81135103
0.804624
0.79974878
0.79617397
0.79444007
0.79299789
0.78950446
0.78670057
0.78705198
0.79107043
0.79904481
0.810006
0.82120498
0.83080363
0.84085033
0.85244585
0.86386835
0.87566374
0.88585544
0.89172347
0.89444708
0.89693859
0.90040801
0.9042872
0.90804964
0.90846657
0.90111284
0.88824294
0.87241461
0.85576407
0.84194364
0.83261316
0.82591983
0.8192761
0.8123293
0.80444307
0.79462394
0.78620589
0.78058619
0.77704173
0.77633448
0.77839489
0.78162896
0.78523438
0.79046387
0.79741663
0.80466012
0.81376468
0.82391956
0.83242125
0.83949792
0.84547081
0.84981009
0.85314446
0.85734705
0.86197125
0.86449732
0.86558413
0.86420997
0.85836066
0.85007938
0.84112517
0.83158684
0.82199874
0.81345917
0.8050617
0.7950097
0.78519363
0.77646708
0.76840389
0.76341419
0.76216966
0.76295292
0.76460372
0.76703509
0.76959215
0.77195224
0.7769737
0.78542907
0.795134
0.80592743
0.81615325
0.82352743
0.82868729
0.83401932
0.84024575
0.84645368
0.8533595
0.8597797
0.86339605
0.86678175
0.87121512
0.87528526
0.87759952
0.87624868
0.86846788
0.85356529
0.83605867
0.82011206
0.80699161
0.79930002
0.79555087
0.7918687
0.78699238
0.78153635
0.77593532
0.7708053
0.76819508
0.76815031
0.76881825
0.77238767
0.77946255
0.78897504
0.80113285
0.81534608
0.82937298
0.84164786
0.85309756
0.86353073
0.87095024
0.87701424
0.88152415
0.88315969
0.88376013
0.88508235
0.88668598
0.8875207
0.88741763
0.88445473
0.87590367
0.86416738
0.85073888
0.83570378
0.82139554
0.80890583
0.79721002
0.78583162
0.77600676
0.7677449
0.75985466
0.75420426
0.75076697
0.74791073
0.74696754
0.74886872
0.75320307
0.76027938
0.77114396
0.78487796
0.79920119
0.81479703
0.83071661
0.8444571
0.85700014
0.86842603
0.87728936
0.88351313
0.88820369
0.89114966
0.8916417
0.89208449
0.89278723
0.89158272
0.88930535
0.88526753
0.87758318
0.86666181
0.85450168
0.8420394
0.82963972
0.81977336
0.8127442
0.80666532
0.80281621
0.80102978
0.7997158
0.79886767
0.79914176
0.80021017
0.80193868
0.80659664
0.81464907
0.82388222
0.83479991
0.84581446
0.85410367
0.85958603
0.86323781
0.86494142
0.86460744
0.86428138
0.8643903
0.86332331
0.86369354
0.8654226
0.86586542
0.86395534
0.8586633
0.84846056
0.83383912
0.81883947
0.80613967
0.79549028
0.78881724
0.78472078
0.78004322
0.77488998
0.7703413
0.76673031
0.76472918
0.76593083
0.76977455
0.7740712
0.78027163
0.78840826
0.79711666
0.80738268
0.81926085
0.83104282
0.84180689
0.8522951
0.86202073
0.86942622
0.87645253
0.88309199
0.88750336
0.89095797
0.89407607
0.89591815
0.89643874
0.89659006
0.89523568
0.88981827
0.88137858
0.86994608
0.85482878
0.83940434
0.82618669
0.81530762
0.80667787
0.80013145
0.79383457
0.78592362
0.77843353
0.77258
0.76786391
0.76631283
0.76813611
0.77190079
0.77779698
0.78696238
0.79897733
0.81238583
0.82757719
0.84304862
0.85583528
0.86740903
0.8783748
0.88792636
0.89668625
0.90521565
0.912221
0.91629826
0.91886915
0.91972629
0.91637817
0.91020873
0.90092121
0.88735918
0.87139263
0.85577015
0.84148435
0.82859228
0.8183022
0.80972721
0.80018801
0.79157225
0.78445692
0.77810481
0.77348638
0.77114464
0.77006082
0.76971551
0.77188929
0.77709785
0.78382285
0.79358399
0.80548126
0.81687585
0.82780076
0.83835852
0.84734452
0.85421542
0.86032581
0.86577335
0.86949753
0.87425566
0.88022243
0.88485989
0.88757167
0.8869645
0.88092772
0.86974104
0.85658156
0.84359952
0.83122281
0.82193026
0.81527388
0.8088371
0.80329067
0.79914967
0.79590709
0.79389642
0.79413799
0.79599518
0.79802109
0.80179338
0.8073631
0.8129421
0.81924491
0.82577461
0.83070545
0.83386768
0.83651898
0.8386365
0.83932514
0.8404005
0.84184158
0.84176484
0.84186025
0.84225973
0.8409174
0.83687176
0.83004109
0.81952905
0.80515272
0.79067462
0.77827391
0.76727979
0.75927158
0.75310878
0.74589187
0.73721229
0.72851467
0.72089357
0.71552192
0.71532468
0.72061567
0.72881056
0.74022145
0.75337277
0.76573851
0.7773059
0.78889994
0.80035224
0.81166701
0.82472917
0.83943133
0.85315116
0.86696125
0.87996016
0.8900594
0.89786012
0.90425794
0.90856941
0.91005292
0.90965125
0.90665494
0.89880843
0.88830519
0.87604524
0.86178315
0.84759638
0.83496476
0.82332693
0.81200619
0.80170883
0.79190982
0.78117184
0.77180038
0.76485585
0.76002534
0.75890485
0.76191629
0.76740559
0.7739802
0.78162027
0.78955931
0.79665594
0.80529786
0.81585757
0.82620296
0.8363288
0.84525215
0.85101458
0.85379849
0.85596853
0.85836822
0.85996604
0.86193494
0.86265255
0.85856024
0.8504069
0.83910204
0.82489464
0.80964415
0.79594042
0.78399938
0.77243236
0.76236688
0.7530819
0.74222834
0.73121641
0.72087819
0.71119817
0.70399729
0.70199686
0.70614722
0.71606376
0.73276004
0.7545954
0.77735197
0.80015594
0.82128489
0.83853881
0.85243134
0.86458604
0.87514261
0.88359804
0.89152977
0.8987399
0.90318654
0.90713365
0.91118847
0.91411323
0.91607655
0.91682641
0.91457574
0.90808429
0.89712465
0.88201927
0.86510433
0.85190427
0.84491493
0.84226704
0.83970678
0.83195769
0.8176375
0.802566
0.79557725
0.80018672
0.81085839
0.81767748
0.81282366
0.7997788
0.79400523
0.80872023
0.84150555
0.87314332
0.88017037
0.85497813
0.81838917
0.80998739
0.8544903
0.93486911
