1.0489062
1.0533096
1.0998329
1.1568738
1.1928015
1.1942403
1.1683221
1.134812
1.1127239
1.1116751
1.1274288
1.1468187
1.1570107
1.1537671
1.1409306
1.1259543
1.1153899
1.1121065
1.1137773
1.1149306
1.1122384
1.106366
1.1000906
1.0949869
1.0919689
1.0900077
1.0865495
1.0780137
1.0642831
1.0470817
1.0288487
1.0100181
0.99221165
0.97559661
0.95956136
0.94211354
0.92536273
0.90988662
0.89597788
0.88348234
0.87522032
0.87211521
0.87403511
0.88074172
0.89378244
0.91259494
0.93499053
0.95922595
0.98478423
1.0100303
1.0326952
1.0528084
1.07156
1.089218
1.1044505
1.1177554
1.1291308
1.1375534
1.1406339
1.1395354
1.1353941
1.1292644
1.1205644
1.1123265
1.1057725
1.1011767
1.0962263
1.0928347
1.0907625
1.0894569
1.0870396
1.0852897
1.0838505
1.0813671
1.0755425
1.067171
1.0560248
1.0419207
1.025471
1.0098967
0.99678583
0.98577893
0.97598977
0.96722557
0.95801878
0.94631126
0.93257719
0.91929142
0.90855293
0.90082972
0.89791789
0.90063216
0.90817382
0.91788142
0.9302663
0.9455542
0.96359577
0.98236357
1.0029259
1.0243151
1.0448545
1.0611992
1.0746809
1.0852726
1.0931935
1.0977928
1.1018288
1.1057794
1.1090112
1.10995
1.1098291
1.1083433
1.1047173
1.0987535
1.0928974
1.0881959
1.0844212
1.0817029
1.0811671
1.0820923
1.0821028
1.0802187
1.0765566
1.0706422
1.0610573
1.048971
1.0360384
1.023203
1.0096171
0.99676528
0.98514566
0.97419901
0.9612726
0.94713556
0.93187194
0.91600092
0.89896013
0.8848966
0.87621072
0.87447548
0.8790374
0.89136992
0.90992628
0.93183536
0.9536247
0.97491313
0.99444806
1.0111032
1.0246985
1.0373485
1.0495991
1.0606437
1.0701285
1.0786993
1.0856436
1.0892146
1.0896677
1.0884673
1.0862852
1.0822978
1.0778235
1.0740005
1.0708506
1.0665154
1.0622098
1.0585913
1.05568
1.0514625
1.0474937
1.0439061
1.0403587
1.0343824
1.0277248
1.0200496
1.0104544
0.9965863
0.97980876
0.96037574
0.93879895
0.91569737
0.89488377
0.87842841
0.86670751
0.85894171
0.85556407
0.85547119
0.85717445
0.86098457
0.86943753
0.88404238
0.90447541
0.93051321
0.96103856
0.99298916
1.0220273
1.0468122
1.0671709
1.0832907
1.0945915
1.1033313
1.1106734
1.1167519
1.1197392
1.1213105
1.1218709
1.1214599
1.1179877
1.1136525
1.1086402
1.1029449
1.0954475
1.0889823
1.0843443
1.0811409
1.077528
1.0741322
1.0697546
1.0626809
1.051821
1.0389816
1.0247725
1.0085127
0.9896844
0.96906956
0.94653569
0.92144388
0.89535977
0.87136193
0.85152741
0.83571526
0.82456747
0.81789174
0.81443554
0.81189691
0.81182164
0.81617781
0.8267923
0.84333501
0.86779385
0.89929408
0.93538246
0.97122737
1.0062206
1.0382664
1.0656777
1.0863984
1.1023534
1.1140514
1.1218148
1.1257749
1.1287822
1.1316544
1.1337784
1.1340708
1.1332256
1.1305519
1.1248564
1.1165495
1.1081541
1.100989
1.0945976
1.089147
1.0847821
1.0801271
1.0724577
1.0617532
1.0489966
1.0350468
1.0194183
1.0040525
0.98999711
0.97723602
0.96366982
0.95029975
0.93728077
0.92472188
0.91108417
0.89867414
0.88803072
0.87916756
0.87070284
0.86445767
0.86069403
0.85936705
0.86019728
0.8655868
0.87609688
0.89107812
0.90951354
0.93162648
0.95570517
0.97898643
0.99987954
1.0184669
1.034096
1.0454592
1.0532088
1.0588073
1.0627617
1.0641857
1.0644712
1.0648928
1.0655619
1.0644694
1.0623766
1.0593653
1.0551255
1.0478465
1.0399358
1.0326882
1.0267697
1.0201187
1.0143527
1.0086331
1.0016172
0.99079951
0.97772206
0.96259337
0.94520043
0.92462402
0.90290526
0.88085311
0.85890123
0.83782162
0.8206725
0.8087535
0.80143064
0.79772363
0.79762986
0.80023084
0.80432936
0.81133947
0.82427052
0.84501731
0.87293367
0.90768975
0.94718414
0.98749985
1.0233862
1.0535399
1.0776034
1.0961198
1.1088527
1.1189732
1.1277308
1.1352558
1.139358
1.1416531
1.1419875
1.140239
1.1354787
1.1304407
1.1260274
1.1222691
1.1182009
1.1153847
1.113541
1.1115024
1.108187
1.1048161
1.1012802
1.0964207
1.0896549
1.0819402
1.0732173
1.0624052
1.0497925
1.0365577
1.0227886
1.0068964
0.98897525
0.96952574
0.94890144
0.92665466
0.90554443
0.88799703
0.87533592
0.8660072
0.86079117
0.85854069
0.85789567
0.85645028
0.8571916
0.86187828
0.87198071
0.88701738
0.90850771
0.93455227
0.96171575
0.98606049
1.0070144
1.0235072
1.034968
1.0420047
1.0475261
1.0527329
1.0572554
1.0610142
1.0648742
1.0681982
1.0691421
1.0677178
1.0650531
1.0614902
1.0560721
1.0501485
1.045032
1.0409717
1.0363288
1.0322276
1.0291367
1.0268799
1.023393
1.0198961
1.0161544
1.0112949
1.0023738
0.99054427
0.9756563
0.95785556
0.93661964
0.9150957
0.89483042
0.87644491
0.85940008
0.84541185
0.83470253
0.82705222
0.82280879
0.82465116
0.8338063
0.84988706
0.872175
0.89993363
0.93025727
0.95886764
0.98344533
1.0032969
1.0180661
1.0273179
1.0334165
1.0386596
1.0440296
1.048239
1.0521296
1.0555005
1.0576191
1.0563714
1.0537367
1.0507552
1.0481301
1.0442476
1.0413376
1.0392113
1.0370864
1.0328698
1.0283441
1.0236662
1.0184045
1.0112774
1.0036975
0.99531999
0.98500194
0.97177293
0.957133
0.94149264
0.92432388
0.90561903
0.88679964
0.86823199
0.84930582
0.83097408
0.81531707
0.80366783
0.79592672
0.7936533
0.79798809
0.80880981
0.82410631
0.84424018
0.86867047
0.89612392
0.92363792
0.95142128
0.97829236
1.0027883
1.0220338
1.0375428
1.0495408
1.058558
1.0644124
1.0702907
1.0770327
1.0839675
1.0889494
1.0922944
1.0929185
1.0897716
1.0829993
1.0758611
1.0702593
1.0662941
1.0635543
1.0619914
1.0597133
1.0538049
1.0436526
1.0306166
1.0158193
0.99907668
0.98171989
0.96465701
0.94762909
0.928845
0.90944314
0.89068419
0.8735614
0.85720326
0.84341997
0.83256656
0.82454709
0.81768084
0.81459923
0.81658287
0.82462357
0.83810963
0.85875253
0.88549965
0.91593848
0.94682475
0.97744903
1.0058316
1.0298083
1.0481003
1.0618882
1.0715144
1.0768811
1.0791034
1.0805638
1.0820372
1.0825103
1.0819691
1.0808493
1.0786547
1.0738659
1.0677443
1.0619274
1.0570845
1.0517293
1.0467109000000001
1.0419605
1.0368682
1.0293835
1.0213859
1.0136963
1.0064158
0.99698463
0.98621569
0.97302302
0.95649677
0.93542058
0.91290418
0.89101333
0.87096231
0.85234196
0.836384
0.82232882
0.80885556
0.79557243
0.78527641
0.78024114
0.78177953
0.79111792
0.80935297
0.83494406
0.86429559
0.89507523
0.925873
0.95492577
0.9799105
1.0011555
1.0191885
1.0339449
1.04415
1.051514
1.057192
1.0617989
1.0641454
1.0662279
1.0683536
1.0701439
1.0691268
1.0671187
1.0642164
1.0604938
1.0550128
1.050534
1.0478279
1.0465678
1.0450894
1.0439346
1.0416596
1.0360143
1.0251617
1.0101605
0.99161604
0.96984689
0.94612447
0.92319656
0.90242889
0.88351641
0.86675486
0.85278406
0.84106784
0.82967967
0.81882855
0.80941806
0.80231021
0.79744912
0.79759145
0.80454477
0.81873235
0.83789966
0.86202372
0.88911589
0.91678735
0.94147834
0.96421906
0.98478211
1.0029886
1.0176459
1.0305389
1.041373
1.0491875
1.0527411
1.0539927
1.053682
1.0519224
1.0488415
1.0464715
1.0449172
1.0428415
1.0395665
1.036092
1.0324131
1.0275343
1.0220431
1.0172812
1.0132492
1.0080706
1.0015035
0.99331638
0.98259908
0.967235
0.94834334
0.9273528
0.90573062
0.88342453
0.86333354
0.84671899
0.83368047
0.82168951
0.8117425
0.80346187
0.79692268
0.79190183
0.79217018
0.79991206
0.81607504
0.83978644
0.87124583
0.9077967
0.94538852
0.98026174
1.0112292
1.036669
1.0550403
1.0664654
1.0728315
1.0752145
1.073874
1.0706841
1.0679962
1.0667641
1.0659609
1.06605
1.0670421
1.0680069
1.0666201
1.0639087
1.0607689
1.0577188
1.0533287
1.0494946
1.04658
1.0443644
1.0405067
1.0367471
1.0328841
1.0281139
1.0200042
1.0093657
0.99561588
0.97813345
0.95633387
0.9330518
0.91017785
0.88877499
0.86929456
0.85343598
0.84086891
0.82980993
0.81920952
0.80999477
0.80282638
0.79804918
0.79791101
0.80505898
0.82020409
0.84147408
0.86792293
0.89778921
0.92849004
0.95668245
0.98267768
1.0068364
1.0292584
1.0483066
1.0651686
1.0792909
1.0897715
1.0944069
1.0956883
1.0946808
1.0921982
1.0874991
1.0828139
1.0781103
1.0726528
1.0653597
1.0584711
1.0527849
1.0480588
1.0435031
1.0398356
1.0358489
1.02927
1.0189284
1.0058892
0.99076937
0.97340069
0.95489662
0.93696194
0.92002524
0.90286694
0.8859724
0.87007425
0.85531945
0.8404663
0.8268453
0.81541905
0.80670344
0.79965131
0.79643858
0.79804567
0.80503088
0.81603223
0.83298491
0.85527797
0.88131367
0.9080082
0.9352333
0.96123722
0.98426385
1.0028888
1.0188433
1.0325039
1.0434035
1.0510108
1.0565892
1.0599071
1.0599328
1.0569057
1.0529833
1.0491698
1.0449236
1.0406997
1.0372611
1.0340238
1.0289967
1.0227319
1.0163582
1.0103647
1.0033784
0.99624571
0.98870882
0.9795071
0.96557334
0.94757229
0.92585579
0.90126292
0.87338026
0.8459668
0.82113088
0.80032864
0.78319406
0.77191975
0.76658281
0.76629259
0.76941629
0.77699565
0.78908145
0.80551308
0.82651299
0.85378537
0.88679661
0.92289564
0.9591604
0.99330271
1.0222588
1.0431838
1.0564353
1.0644109
1.0693048
1.0718864
1.0742663
1.07747
1.0808694
1.0819071
1.0811523
1.0790836
1.0760528
1.0707689
1.065451
1.0607977
1.0568949
1.0516664
1.0472789
1.0438908
1.0410162
1.0363144
1.0304147
1.0218792
1.0086898
0.98862162
0.96320912
0.93380383
0.90202233
0.86988852
0.84132319
0.81822103
0.80030082
0.78668033
0.77724319
0.77087315
0.76601657
0.76349726
0.765818
0.77490241
0.79090272
0.81489306
0.84638582
0.8827296
0.91908775
0.95339755
0.98363016
1.008394
1.0260351
1.0391749
1.0495218
1.0583783
1.0649661
1.0717947
1.0788645
1.0854772
1.0897225
1.0931239
1.0955277
1.0962695
1.0941523
1.0908538
1.0864612
1.0803528
1.0721445
1.0637848
1.0557612
1.0473581
1.0382715
1.0294676
1.0206246
1.010257
0.99822077
0.98534422
0.97157369
0.95544356
0.93726146
0.91775183
0.89736313
0.87556454
0.85466792
0.83666163
0.82261106
0.81108458
0.80303558
0.79778369
0.79439858
0.79076296
0.78958935
0.79239541
0.80058022
0.81401921
0.83479075
0.86189846
0.8927075
0.92361054
0.95350818
0.98025647
1.0019165
1.0178048
1.0298069
1.0387277
1.0444291
1.047454
1.0493624
1.0502729
1.0490205
1.0460456
1.0426372
1.0390217
1.0338362
1.0278233
1.021861
1.0161589
1.0094974
1.0036591
0.99975551
0.9977788
0.99512954
0.99190105
0.98678305
0.97842827
0.96444725
0.94715226
0.92790807
0.90792621
0.88681721
0.86677844
0.84800579
0.82996604
0.8116377
0.79502394
0.78114829
0.77044122
0.76323659
0.76158992
0.76601512
0.77593924
0.79148811
0.81394511
0.84306855
0.87688644
0.91400357
0.95266947
0.98953121
1.0200597
1.0427273
1.0575514
1.0656783
1.0683572
1.0700569
1.0737064
1.0796851
1.0843673
1.0860007
1.081507
1.0691061
1.0478258
1.0236727
1.0022113
0.98814068
0.98247452
0.98657778
0.99718104
1.0089893
1.0164028
1.0184217
1.0147522
1.0060173
0.99342841
0.97995428
0.96634616
0.95148732
0.93444229
0.91606245
0.8968645
0.87688629
0.85767226
0.84147122
0.82907329
0.81915948
0.81185523
0.80747629
0.80609178
0.80690103
0.81238494000000006
0.8243695
0.8433845
0.86704938
0.89521847
0.92560282
0.95553465
0.98128763
1.0041242
1.0241054
1.0412144
1.0541062
1.0642515
1.0710728
1.0737236
1.0716402
1.067829
1.0642304
1.0617277
1.0603768
1.0612185
1.0629723
1.0631065
1.0604257
1.0562911
1.0518287
1.0474132
1.0445776
1.0447617
1.0471704
1.0485672
1.0473516
1.0425864
1.0337128
1.0199705
1.0041742
0.98899474
0.97594922
0.96359604
0.95231098
0.94067943
0.92708522
0.90904292
0.8892171
0.86981736
0.85329374
0.84064312
0.83518252
0.83741113
0.84637223
0.8601477
0.87923956
0.90249417
0.92788291
0.95333079
0.97832909
1.0008894
1.0185075
1.0303874
1.0379747
1.0423933
1.0440821
1.0448963
1.0467344
1.0496354
1.0514856
1.0520504
1.0512887
1.0488371
1.0432912
1.0367704
1.0309652
1.0266724
1.0221469
1.0186395
1.0155655
1.0117911
1.0043435
0.99508104
0.98444859
0.97280368
0.95907703
0.94544173
0.93197286
0.91789559
0.90171476
0.88499549
0.86821748
0.85139077
0.83463337
0.82019154
0.80894541
0.8006644
0.79570129
0.79578324
0.80140536
0.81172961
0.82708062
0.84809202
0.87397748
0.90228686
0.93234594
0.9632155
0.9931478
1.0192028
1.041545
1.0601838
1.075154
1.085411
1.0934254
1.1002373
1.1061748
1.1093256
1.1114613
1.112313
1.1113936
1.1073094
1.1025005
1.0978536
1.0936331
1.089174
1.0861197
1.083959
1.080952
1.0752989
1.0677051
1.0581987
1.046527
1.0334721
1.0211434
1.0098271
0.99764794
0.98316567
0.96570055
0.94448503
0.91882382
0.89131142
0.86556956
0.84429959
0.82750208
0.81621327
0.80981366
0.8069035
0.80510209
0.80648529
0.81269381
0.82500652
0.84296331
0.86637838
0.89192129
0.91595924
0.93617484
0.95387023
0.97007957
0.9854034
0.99946027
1.0116113
1.0197252
1.0229652
1.0236688
1.0261599
1.0324716
1.0408716
1.0471229
1.046132
1.0349799
1.0164737
1.0001868
0.99602333
1.007296
1.027146
1.0423687
1.038987
1.0120134
0.97110752
0.9392823
0.93842233
0.97495277
1.0305387
1.066918
