0.79493459
0.80310911
0.83740212
0.86775732
0.87635516
0.86561645
0.85175155
0.85049938
0.86810171
0.89738356
0.92413637
0.93886843
0.94202495
0.94087952
0.94214715
0.94957964
0.96041272
0.96816795
0.9684563
0.96245633
0.95444644
0.94730043
0.94346652
0.94188201
0.9391738
0.93219424
0.92126543
0.9082632
0.89448772
0.8821969
0.87277727
0.86581983
0.85985231
0.85538559
0.85175763
0.84758253
0.84453592
0.84448451
0.8481351
0.85447991
0.86478744
0.87808117
0.89194816
0.90564953
0.91945437
0.93277913
0.9428482
0.95085704
0.95597676
0.95668703
0.95296016
0.94738113
0.94185409
0.9364119
0.93391345
0.93488127
0.9375189
0.93900233
0.9390831
0.93658876
0.92984168
0.92070862
0.9113665
0.90278697
0.89418205
0.8872853
0.88162296
0.87553366
0.86930572
0.86440938
0.86156309
0.85943734
0.86029285
0.86428166
0.87054352
0.87896245
0.89097193
0.90635013
0.92225648
0.93835006
0.95295532
0.96384772
0.96970735
0.97309592
0.97574988
0.97764615
0.98049492
0.98473033
0.98895128
0.99043685
0.99034952
0.98850846
0.98365399
0.97617034
0.96716436
0.95681985
0.94362694
0.93070881
0.91927062
0.90920048
0.90049364
0.89421021999999994
0.89002256
0.88618448
0.88458334
0.88622483
0.89080053
0.897109
0.90572822
0.91563756
0.92470607
0.93383735
0.94418816
0.95570001
0.9664237
0.97699283
0.98596099
0.99097115
0.99233717
0.99213675
0.99182865
0.99044053
0.99057383
0.99184123
0.99230072
0.99082626
0.98833871
0.98469254
0.97793902
0.96953164
0.95971596
0.94796672
0.93413999
0.92112618
0.91038077
0.90146715
0.89562981
0.89314168
0.89286342
0.89267665
0.89408812
0.89729952
0.90140648
0.90686772
0.91448227
0.92377564
0.9321984
0.94145065000000006
0.9513448
0.96060634
0.96851373
0.97579989
0.98182595
0.98427943
0.98478445
0.98418064
0.98243682
0.97927238
0.97674955
0.9748839
0.97170954
0.96768257
0.96297952
0.95682183
0.94760878
0.93754132
0.92736698
0.91687226
0.90751103
0.9010231
0.89741509
0.89405845
0.89197374
0.8904472
0.88852305
0.88679252
0.88779982
0.89253407
0.89928759
0.90849624
0.91888747
0.92834778
0.93539942
0.94196028
0.94885409
0.95505243
0.9613324
0.96758525
0.97252252
0.97422089
0.97491095
0.97532859
0.97463037
0.97290877
0.97017744
0.96513291
0.95498686
0.94236804
0.92894895
0.91592569
0.90488056
0.89780549
0.89400756
0.8901473
0.88604311
0.88120465
0.8754478
0.86955516
0.86701558
0.86918958
0.87458709
0.88267861
0.89195812
0.9001608
0.90503552
0.90895928
0.91342182
0.91847115
0.92476416
0.93239568
0.93955424
0.94243622
0.94244845
0.94032252
0.93683446
0.93375754
0.93371375
0.93649358
0.93856265
0.93904526
0.9362086
0.92858068
0.91620743
0.90288856
0.89101219
0.88058757
0.87275258
0.86746294
0.86359683
0.85971054
0.85834903
0.86051854
0.86527464
0.87200084
0.87995403
0.88769026
0.89308201
0.8993685
0.90833113
0.91973048
0.93205743
0.94374226
0.95170351
0.95253837
0.94859409
0.94307166
0.93851007
0.93593403
0.93679023
0.93934521
0.94003061
0.93877098
0.93665746
0.93452172
0.93181733
0.9302879
0.92883799
0.92477127
0.91754512
0.90832618
0.89817072
0.88660086
0.87681885
0.86958528
0.86429489
0.86090715
0.86095352
0.86475984
0.87070014
0.87971303
0.891121
0.90291849
0.91294365
0.9217861
0.92906182
0.9332932
0.93578191
0.9377673
0.93940349
0.93952377
0.94011959
0.94103943
0.94059136
0.93867371
0.93609507
0.93297057
0.92774079
0.92308197
0.91936201
0.91541642
0.91028133
0.90428216
0.89676639
0.88618355
0.87503636
0.86525363
0.85777314
0.85277658
0.85165715
0.85344663
0.85543461
0.85740837
0.85964478
0.86236119
0.8654123
0.8717642
0.88217596
0.89516128
0.90976022
0.92499176
0.93870309
0.94712141
0.95168097
0.95282764
0.95073152
0.94650335
0.94252655
0.93911101
0.93396917
0.92769207
0.91975013
0.90907045
0.89514245
0.88062162
0.86692832
0.85377651
0.84266164
0.83398823
0.82642833
0.81736987
0.80772331
0.79758016
0.78690825
0.77796518
0.7738002
0.77589648
0.7827889
0.79585978
0.81404719
0.83525663000000006
0.85828785
0.88359975
0.90998618
0.93359659
0.95318819
0.96654526
0.97154649
0.96774078
0.95913621
0.94913842
0.93921157
0.93202339
0.92841341
0.92703405
0.92511218
0.92359021
0.92195264
0.91843447
0.91267895
0.90506057
0.89547826
0.88289405
0.87116223
0.86243248
0.85709225
0.8547317
0.85523665
0.85708423
0.85797993
0.85990567
0.86479078
0.8734282
0.88512108
0.89990243
0.91552975
0.92842846
0.93845956
0.94672681
0.95409617
0.96006191
0.96659124
0.9729054
0.97646193
0.97672182
0.97466426
0.97092913
0.96439705
0.95815865
0.95285798
0.94769039
0.94227235
0.93766792
0.93341454
0.92702217
0.9192596
0.91003674
0.89883993
0.88566821
0.87337633
0.86329495
0.85481732
0.84902339
0.84643761
0.84670121
0.84881912
0.85524554
0.86661671
0.88153473
0.89897016
0.91760717
0.93481518
0.94652665
0.95410809
0.95842175
0.960348
0.96169478
0.96515506
0.97070777
0.97512599
0.97800966
0.97817
0.97459396
0.96751861
0.96054838
0.95533302
0.95061334
0.94614192
0.94066383
0.93234051
0.91970961
0.90619789
0.8941353
0.88402922
0.87653847
0.87173161
0.8684284
0.86444231
0.86276861
0.86517398
0.87181776
0.88183248
0.89417712
0.90597132
0.91345753
0.91795291
0.92150528
0.92576567
0.93134337
0.93964793
0.94892911
0.95525392
0.95793768
0.95754225
0.95496931
0.95064204
0.94815364
0.94818253
0.94883949
0.94904835
0.94823826
0.94521332
0.937607
0.92814823
0.91805198
0.90758348
0.89739918
0.88921607
0.88304304
0.87702154
0.87255485
0.87011909
0.86926247
0.86925617
0.87158626
0.876184
0.88149677
0.88841019
0.8976405
0.908692
0.9195408
0.93108394
0.9422255
0.95065451
0.95611561
0.9597036
0.96196541
0.96164167
0.9614108
0.96147783
0.96064753
0.95827624
0.95523585
0.9513258
0.94486541
0.93780593
0.93102919
0.92422858
0.91662683
0.90971062
0.90329128
0.89579956
0.88842363
0.88248717
0.87848371
0.87573868
0.87632444
0.8800658
0.88511775
0.89098635
0.89802897
0.90604008
0.91329895
0.92224202
0.93314161
0.94453398
0.95461112
0.962151
0.96415294
0.95623954
0.93907789
0.91475818
0.8870304
0.86125558
0.84533101
0.84335725
0.85409668
0.87492005
0.90030704
0.92325307
0.9374271
0.94295877
0.94102754
0.93314583
0.9224917
0.91194867
0.90221954
0.89147993
0.88199798
0.874536
0.86914957
0.86634098
0.86744354
0.87180319
0.87662189
0.88227856
0.88851199
0.89462637
0.90015473
0.9071049
0.91574162
0.92435562
0.93326745
0.94224715
0.9499565
0.95417482
0.95649953
0.95717714
0.95556571
0.95278891
0.95064023
0.9495981
0.9477154
0.94659672
0.94560481
0.9428644
0.93723159
0.92952001
0.91986271
0.90733991
0.89481142
0.88409143
0.87565752
0.86917881
0.86593123
0.86513105
0.86434133
0.8637214
0.86382618
0.86486971
0.86635948
0.87086008
0.87855521
0.88740491
0.89618822
0.90431057
0.91083619
0.91388251
0.91661354
0.92031528
0.92451177
0.92836945
0.93197515
0.93428326
0.93344189
0.93214771
0.93234518
0.93416617
0.93595619
0.93702259
0.93467598
0.92578118
0.91173831
0.89568799
0.88067545
0.86819887
0.86133602
0.85972047
0.86080231
0.8635071
0.8679461
0.87384382
0.87927525
0.88591477
0.89329179
0.89995503
0.90545659
0.91131343
0.91794612
0.9236732
0.92952635
0.93509418
0.93899139
0.94008294
0.94034426
0.9404762
0.93935065
0.93781322
0.93607479
0.93321557
0.92748748
0.92101322
0.91432294
0.90646679
0.89772491
0.88883719
0.87962504
0.86842327
0.85811046
0.84966089
0.84269791
0.83687442
0.83281663
0.82994722
0.82665046
0.82529893
0.82786174
0.8352415
0.84721306
0.86440735
0.88458702
0.90331402
0.91885471
0.93051705
0.93827575
0.94238723
0.94677334
0.95288491
0.95946702
0.9654793
0.96996361
0.97152829
0.96825503
0.96372314
0.95995122
0.95713201
0.95451585
0.95134058
0.94509876
0.93258112
0.91568819
0.89706544
0.87924876
0.86415269
0.85451194
0.85007018
0.848256
0.84861589
0.85089116
0.85433141
0.85735685
0.86128512
0.86573364
0.86923569
0.87210047
0.87559903
0.88002414
0.8833273
0.88696027
0.8901594
0.89133523
0.89020251
0.8886741
0.88768965
0.88626389
0.88617532
0.88737185
0.88833621
0.88735394
0.88536417
0.88203637
0.87580717
0.86777045
0.85888093
0.84926064
0.83825376
0.82851007
0.82081478
0.81449083
0.81000739
0.80815843
0.80876227
0.81006338
0.81429256
0.82185355
0.8318403
0.84339459
0.85656164
0.86989882
0.88039208
0.88867828
0.89494441
0.89882231
0.89989782
0.90009838
0.89972327
0.89746398
0.8944144
0.8915359
0.88880361
0.88502086
0.88212203
0.88011734
0.87754507
0.8743325
0.87103612
0.86721083
0.86057141
0.85297567
0.84461623
0.8350409
0.82476015
0.8160004
0.80989934
0.80589065
0.80602067
0.81080791
0.81921136
0.82944268
0.84170655
0.8548169
0.86632186
0.87634634
0.88517686
0.89235705
0.89648123
0.89948775
0.90174109
0.90246484
0.90257224
0.90375018
0.90657873
0.90935296
0.91392249
0.91955666
0.92402546
0.92563133
0.92456966
0.92056843
0.9125702
0.90313986
0.89369005
0.88408033
0.87331186
0.86230863
0.85098192
0.83888749
0.82884486
0.82386021
0.82537304
0.83231851
0.84464102
0.85942612
0.87245229
0.88193466
0.88839136
0.89296011
0.89560387
0.89990485
0.90650566
0.9137867
0.91995596
0.92470466
0.92704834
0.92514039
0.9211712
0.91652019
0.91125477
0.90458247
0.89749642
0.8892034
0.87767563
0.86407777
0.85021375
0.83742632
0.82593432
0.81851216
0.81503107
0.81303217
0.81094926
0.80797543
0.8031852
0.79511196
0.78732036
0.78222077
0.7811733
0.7853319
0.7961006
0.81251671
0.83107652
0.85108039
0.87088635
0.88822926
0.90115035
0.91069991
0.91702762
0.91927426
0.91930375
0.91870608
0.91765845
0.91477249
0.9117178
0.90857127
0.9046491
0.90128438
0.90039193
0.90203163
0.90306332
0.90339588
0.90094942
0.89373224
0.88209591
0.86940057
0.85835608
0.84937455
0.84441056
0.84307831
0.8434802
0.84388119
0.84568177
0.84966773
0.85528541
0.86347922
0.87410454
0.8853766
0.8943446
0.90166805
0.90717464
0.91002663
0.91109623
0.91178364
0.91222191
0.91042768
0.90869213
0.90756346
0.90671169
0.90636397
0.9078713
0.91061688
0.91160102
0.91085249
0.90757589
0.9007107
0.88997533
0.87833149
0.86757485
0.85775631
0.85051491
0.84635096
0.8441611
0.84173736
0.84032579
0.84010582
0.84051003
0.84249383
0.84734346
0.85490527
0.86271649
0.87190384
0.88171935
0.89057344
0.89778228
0.90445219
0.91067465
0.91490137
0.91882537
0.92282843
0.92597076
0.92691998
0.92689426
0.92598138
0.92323689
0.92041221
0.9188014
0.91790895
0.91523807
0.9110847
0.90430277
0.8935848
0.88050385
0.86814579
0.85850536
0.85073263
0.8464899
0.84461178
0.8428974
0.840495
0.83896436
0.83927384
0.84065074
0.84465469
0.85108525
0.85846511
0.86536258
0.87312378
0.88199599
0.89060867
0.89938555
0.90793845
0.91468721
0.91739931
0.91792921
0.91724526
0.91549772
0.91422086
0.91485908
0.9169131
0.91725917
0.91660908
0.91399797
0.90813498
0.89918522
0.88936123
0.87974078
0.86948329
0.86050053
0.85322774
0.84697158
0.84092911
0.83664761
0.83425884
0.83235348
0.83151582
0.83199298
0.83322227
0.83398836
0.83643414
0.84115352
0.84722366
0.85458926
0.8632461
0.87198436
0.87787795
0.882472
0.88587101
0.88739488
0.8869923
0.88598432
0.88443014
0.88090883
0.87763227
0.87583112
0.87540007
0.87535894
0.87644095
0.87746739
0.87587084
0.87197613
0.86637755
0.85893258
0.84853664
0.837449
0.82668905
0.81669427000000006
0.80968186
0.80804281
0.8118706
0.8177305
0.82480267
0.83062289
0.8333393
0.83385541
0.83597164
0.84218058
0.85160273
0.86396149
0.87629253
0.88475039
0.88711607
0.88597768
0.88428598
0.88368553
0.88668374
0.89333291
0.90095139
0.90542621
0.90682535
0.90525592
0.90108225
0.89667705
0.89443241
0.89441428
0.89347244
0.89173866
0.88774875
0.88015449
0.869589
0.85912499
0.85076407
0.84419338
0.84082667
0.83995533
0.83945212
0.83731047
0.83451202
0.83158654
0.82822934
0.82628088
0.82693148
0.8299565
0.83382934
0.8398152
0.847382
0.85453378
0.86057877
0.8655191
0.86884634
0.86887262
0.86854837
0.86901768
0.86990661
0.87069913
0.87185096
0.87263122
0.87123586
0.86984325
0.86971428
0.87043424
0.87020839
0.86871405
0.86413302
0.85429589
0.84102444
0.82724462
0.81520028
0.80526216
0.79937099
0.79654485
0.79415033
0.79153176
0.78974353
0.78975432
0.79084474
0.79574057
0.80451779
0.81552334
0.82737547
0.8403836
0.85393938
0.86583232
0.87696962
0.88700645
0.89443082
0.89766739
0.89823271
0.8970605
0.89431552
0.89271067
0.89414624
0.89816538
0.90166755
0.9037779
0.90197966
0.89376201
0.88007692
0.86444117
0.85045566
0.83963519
0.83594213
0.83945747
0.84751181
0.85712718
0.86702084
0.87584016
0.88193776
0.8876491
0.89454058
0.90259883
0.91055376
0.91872937
0.92602036
0.93041597
0.93300661
0.93528396
0.93759656
0.9384674
0.93895935
0.93835434
0.93529273
0.9309036
0.92754984
0.92617864
0.92452626
0.92301614
0.91955345
0.91175994
0.89960597
0.88625311
0.87433941
0.86423477
0.85800271
0.85522332
0.85400527
0.85278611
0.85322044
0.85606363
0.86030359
0.86630514
0.87349237
0.88030997
0.88493533
0.88981467
0.89621111
0.90363063
0.91192657
0.92047295
0.92722562
0.92879151
0.9273803
0.92448573
0.92105717
0.9182375
0.91760881
0.91829348
0.91805683
0.91619237
0.91116476
0.90239276
0.89168793
0.88250497
0.8762903
0.87180705
0.86732636
0.86014004
0.84968208
0.83952123
0.83656372
0.84398995
0.85851219
0.87242676
0.8772356
0.87045547
0.85926938
0.85865634
0.87788422
0.91256609
0.9454914
0.95632544
0.93646937
0.89941239
0.87756511
0.89890265
0.96430815
1.0381564
