1.1259497
1.1059131
1.1319603
1.1803339
1.2200561
1.2317489
1.213726
1.1793315
1.1461536
1.1282868
1.1291651
1.141345
1.1512956
1.1489386
1.1321886
1.1060363
1.0780189
1.0550459
1.0405291
1.0325619
1.0254175
1.0137764
0.99614507
0.97390594
0.94992049
0.9272259
0.90880878
0.89549661
0.88615591
0.87885153
0.87349488
0.87117117
0.87424235
0.88570439
0.90986339
0.94932752
1.0034531
1.0677259
1.137379
1.2046659
1.2623184
1.3048596
1.3340711
1.3528384
1.3649929
1.3719872
1.3775245
1.3811562
1.3811571
1.3738752
1.3620098
1.3479234
1.3349351
1.3239198
1.3182787
1.3173112
1.3176657
1.3127214
1.2994901
1.275375
1.2395566
1.1919174
1.1371332
1.0804874
1.0267311
0.97830376
0.93825639
0.90780624
0.88585957
0.86928416
0.85655833
0.84759905
0.84333456
0.84543801
0.85753566
0.88332945
0.92348207
0.97459118
1.0311119
1.0870772
1.1358438
1.1722181
1.195096
1.2087514
1.2178976
1.2263109
1.2359608
1.2489142
1.2632882
1.27565
1.2825827
1.2853271
1.2844178
1.280403
1.2724259
1.2627543
1.2512134
1.23762
1.2209568
1.2051211
1.1914745
1.179714
1.1653548
1.1466487
1.119554
1.0818891
1.0334275
0.98095978
0.93197664
0.89323907
0.8673056
0.85550767
0.85520725
0.86236627
0.87294195
0.88767522
0.90906933
0.93955699
0.97848348
1.0241647
1.0719813
1.1154767
1.1479611
1.1678228
1.1774241
1.1805864
1.1802478
1.1795231
1.1803058
1.1815439
1.1805502
1.1765975
1.1719637
1.1684839
1.1666993
1.1661928
1.166653
1.1647412
1.1561055
1.137579
1.1105657
1.0768514
1.0388992
0.99894994
0.96140218
0.92808388
0.89970359
0.87574017
0.85831039
0.8474355
0.84224921
0.84013558
0.84144696
0.84577272
0.85402446
0.86699789
0.88963182
0.92441549
0.9712438
1.0247758
1.0804773
1.1312793
1.170969
1.1945219
1.2043708
1.205118
1.2023231
1.1990431
1.1991042
1.2029179
1.2081375
1.2101469
1.2076903
1.2010341
1.1911236
1.1781252
1.1637384
1.1487734
1.1316173
1.1086811
1.078287
1.0413159
1.0000054
0.95786164
0.92018391
0.89241432
0.87607583
0.86841768
0.86434094
0.85975194
0.85170793
0.84098043
0.83284652
0.8370584
0.861303
0.90818904
0.973114
1.0477219
1.1191518
1.1752629
1.2078178
1.2189225
1.2149742
1.2048359
1.1945303
1.1904697
1.1924373
1.1969349
1.1975936
1.1944901
1.1880042
1.1801942
1.1711895
1.163857
1.1572265
1.1484053
1.1323899
1.1090081
1.0789522
1.0442889
1.0065271
0.96999226
0.93767068
0.91101475
0.88941469
0.87372943
0.86410283
0.85931378
0.85650606
0.85433808
0.85277874
0.85301428
0.85755021
0.87148039
0.90030061
0.94613354
1.0059787
1.0732794
1.1401087
1.1975821
1.2387328
1.2615949
1.2706532
1.2714567
1.2685905
1.2643051
1.2606725
1.2560848
1.2480738
1.2350135
1.220768
1.2086209
1.2007358
1.1956497
1.1926368
1.1868185
1.1728271
1.1457125
1.1082353
1.0646335
1.020949
0.98083445
0.94988629
0.92847395
0.9139851
0.90072974
0.88685372
0.87117382
0.85479755
0.83955089
0.83100756
0.83363057
0.85003783
0.87933755
0.92055436
0.97035567
1.0238404
1.0747611
1.1199894
1.1580491
1.1887343
1.2120319
1.2309342
1.2488295
1.2672351
1.2849987
1.301254
1.3152383
1.3248778
1.3275854
1.3229605
1.3132843
1.3002576
1.2847645
1.2677823
1.2516453
1.2365034
1.2211971
1.2042497
1.1865838
1.1674067
1.1452201
1.1180251
1.0869284
1.0524224
1.0158592
0.97884363
0.94612854
0.92034617
0.90232055
0.88988123
0.88266475
0.87905699
0.87893208
0.88282493
0.89615392
0.92253696
0.96306645
1.0132434
1.0682092
1.1195507
1.1592738
1.1808571
1.1863292
1.1809423
1.1716748
1.1630704
1.1601424
1.1636559
1.1709646
1.1768851
1.1799632
1.1804125
1.1790781
1.1756842
1.1712707
1.1657928
1.1569941
1.1411843
1.1172387
1.0866224
1.0511764
1.0125735
0.97349808
0.93743778
0.90607546
0.87989352
0.85949226
0.84653771
0.84048564
0.8389677
0.83879286
0.83904804
0.83938546
0.8417572
0.8502767
0.8723173
0.91229148
0.97005054
1.0391716
1.1117564
1.1766515
1.2242896
1.2482919
1.2522129
1.242278
1.2264376
1.2092432
1.1966658
1.1890666
1.1845572
1.1790725
1.1739124
1.1701195
1.1687336
1.1677284000000001
1.1666001
1.1619609
1.1496634
1.125467
1.0911632
1.0510321
1.0105301
0.9735372
0.94424229
0.92402749
0.91121579
0.9018753
0.89390045
0.88667815
0.88003747
0.87354741
0.86818563
0.86590308
0.86806668
0.87552967
0.89023175
0.91532917
0.95166367
0.99688821
1.0464172
1.0959181
1.1395888
1.1723563
1.1917892
1.2008291
1.2026198
1.2000514
1.1945956
1.1892653
1.1842685
1.1792485
1.1735463
1.1704879
1.1714866
1.1764398
1.1818102
1.1857422
1.1836001
1.1715218
1.1463359
1.1120144
1.0730026
1.0345495
0.99955854
0.97230602
0.95368686
0.94317017
0.93884302
0.94232151
0.95511508
0.97827596000000006
1.0103449
1.0501135
1.0939559
1.1367299
1.1724033
1.198475
1.2145324
1.2213336
1.2192583
1.2105264
1.1974091
1.180839
1.1602504
1.136749
1.1127488
1.0896022
1.0671955
1.045861
1.0269562
1.0101893
0.99432852
0.97890921
0.96586726
0.95565002
0.94746741
0.93979516
0.93312255
0.92617779
0.91744192
0.90563094
0.89339415
0.882216
0.87312627
0.86555266
0.86106075
0.8586619
0.85672633
0.85275751
0.84842055
0.84517792
0.84562312
0.85136643
0.86717121
0.89470104
0.93346978
0.97918603
1.029437
1.0794959
1.1247627
1.1602638
1.1866424
1.2052777
1.2182859
1.2263342
1.2324779
1.2380228
1.2425487
1.2435129
1.2409184
1.2353926
1.2275645
1.2172497
1.2062149
1.1964979
1.1887774
1.181973
1.17548
1.1687178
1.1593361
1.1435978
1.1187709
1.0845684
1.0419519
0.99377308
0.94517005
0.90306134
0.87154115
0.85089173
0.83804718
0.82999816
0.82335612
0.81738533
0.8148836
0.82353411
0.84933693
0.89403027
0.95242456
1.016918
1.0758599
1.1190639
1.1401561
1.1436018
1.1373251
1.1309395
1.1296453
1.1382963
1.1541507
1.1708852
1.179772
1.1787665
1.1676521
1.1487701
1.1236052
1.0964747
1.0687393
1.039821
1.007216
0.97256336
0.93852655
0.90829677
0.88351592
0.86682506
0.85849789
0.85594304
0.85431328
0.85079677
0.84446445
0.83580777
0.82653384
0.82090482
0.82421173
0.83995647
0.86879596
0.90947256
0.95928623
1.0126842
1.0625805
1.1029706
1.1317697
1.1486709
1.1554223
1.1555684
1.1555688
1.1592107
1.1674328
1.1780813
1.1900432
1.1997904
1.2039799
1.1999064
1.1904864
1.1784158
1.1666614
1.1558908
1.1490298
1.1449082
1.1404803
1.130012
1.1125904
1.0871027
1.0545377
1.0162176
0.97775922
0.9433537
0.9157182
0.89438559
0.87983608
0.87075443
0.86549674
0.86211902
0.86226935
0.86843355
0.88315817
0.90727701
0.94182908
0.98547572
1.0339921
1.0804198
1.1194565
1.1475564
1.1628894
1.1653493
1.1587656
1.149081
1.1407199
1.1353241
1.1333291
1.1348202
1.1378176
1.1397326
1.1395465
1.1392938
1.1398301
1.1404774
1.1390582
1.1344978
1.1235934
1.1033341
1.0722027
1.034024
0.99300155
0.95371608
0.91912964
0.89316125
0.87570762
0.8645117
0.85531695
0.84723547
0.83902007
0.8307889
0.82244723
0.81802545
0.82029303
0.83168313
0.85240218
0.88437139
0.92648479
0.97540251
1.0244427
1.0694029
1.1056815
1.1301795
1.1408194
1.1413755
1.1369006
1.1321851
1.1293091
1.1307979
1.1368981
1.1454114
1.1520753
1.1549748
1.153578
1.1473185
1.1348949
1.1165685
1.0934324
1.0654222
1.0317509
0.99337694
0.95374299
0.91593788
0.88250079
0.85570505
0.83797594
0.82864614
0.82472783
0.82229132
0.81957777
0.81514459
0.80931157
0.80419372
0.80551776
0.81781811
0.84380603
0.88271021
0.93356733
0.9915308
1.0501326
1.1015019
1.1430544
1.1728464
1.1912747
1.198426
1.1996857
1.1980746
1.1955241
1.190888
1.1862762
1.1820232
1.1784164
1.1742261
1.171749
1.1715534
1.1725239
1.1704428
1.163175
1.1480481
1.122984
1.0865691
1.0422376
0.99535657
0.95123749
0.91314524
0.88394139
0.86447169
0.85277589
0.8450444
0.83910026
0.83522782
0.83494878
0.84046043
0.85502822
0.88212623
0.92197086
0.97112819
1.0239568
1.0752823
1.1192554
1.1512937
1.1695901
1.1771648
1.1774803
1.1739469
1.1688381
1.165528
1.1642299
1.1638532
1.162402
1.1614339
1.1612286
1.1619713
1.1622228
1.1637106
1.1657352
1.1672614
1.1652893
1.161551
1.1555867
1.1463544
1.1302292
1.1074844
1.0775903
1.0415137
1.000842
0.96253287
0.93352078
0.91919331
0.9203083
0.93632131
0.96281417
0.99275004
1.0175775
1.0326793
1.0364818
1.0296122
1.0133078
0.9913867
0.96806358
0.94597547
0.92560714
0.90815852
0.89521134
0.88668849
0.88093082
0.87702325
0.87569742
0.87699905
0.88097978
0.8890834
0.90512442
0.93102637
0.96654607
1.0093674
1.0572837
1.1051045
1.1468621
1.1773778
1.1962898
1.2042654
1.2038963
1.1983171
1.1936418
1.1929974
1.1972228
1.2038717
1.2121944
1.219276
1.2227381
1.2201661
1.2141688
1.2069599
1.2009897
1.1966089
1.1960257
1.1986297
1.2025405
1.2041024
1.2033028
1.2001883
1.1953925
1.1885232
1.1818043
1.1764206
1.1720327
1.1658888
1.1567924
1.1436225
1.12509
1.0995089
1.0679263
1.0329825
0.9972844
0.96254215
0.93141501
0.90667815
0.88893264
0.87645206
0.86744876
0.86103978
0.85531423
0.84824444
0.83926613
0.83018887
0.82169571
0.81362484
0.80554003
0.79870603
0.79286579
0.78767888
0.78333245
0.78341218
0.79038249
0.80622363
0.83130762
0.86757796
0.91333269
0.96483644
1.0157091
1.0634146
1.1041487
1.135393
1.1542176
1.163732
1.1658902
1.1629255
1.1550501
1.1461496
1.1379967
1.1315404
1.1254081
1.1211229
1.1185586
1.1165198
1.1116853
1.1030669
1.0891806
1.0684015
1.0387851
1.0018456
0.96085166
0.92001459
0.88322169
0.8552027
0.8388658
0.83322017
0.83326502
0.83337768
0.82939302
0.8196661
0.8065354
0.79723816
0.80170554
0.82691213
0.87368796
0.93632299
1.0051307
1.0674748
1.1124989
1.1350954
1.1392789
1.1327118
1.1238112
1.1180731
1.1195683
1.12639
1.133952
1.1370338
1.1361857
1.132528
1.1279633
1.1220103
1.1160851
1.1076367
1.0932773
1.0687775
1.036574
0.99967416
0.9624975
0.9276639
0.89957595
0.87882893
0.86377778
0.85051383
0.83817707
0.82616925
0.81480355
0.80409099
0.79655483
0.79419467
0.79827474
0.80869636
0.82689599
0.85392481
0.88967095
0.9320043
0.97912826
1.0284531
1.075847
1.1158496
1.1451116
1.162705
1.1687678
1.1645423
1.1538917
1.1427654
1.1351903
1.1324477
1.133808
1.1380644
1.1411632
1.1381868
1.1254104
1.1033918
1.0734503
1.038103
1.0002377
0.9650434
0.93504232
0.91090008
0.89108355
0.87590191
0.86374743
0.85287378
0.84083973
0.82881462
0.81719653
0.80687358
0.79766063
0.79260648
0.79308782
0.79996363
0.81219701
0.83110175
0.85652576
0.88784702
0.9226186
0.96100178
1.0017496
1.0424687
1.0783677
1.1072196
1.1266157
1.1347162
1.1298936
1.1148843
1.0936573
1.0697774
1.0448664
1.021306
1.0006329
0.98262187
0.96568404
0.94990076
0.93642999
0.92531513
0.91522697
0.90515221
0.89497519
0.88375867
0.87068126
0.85630238
0.84325985
0.83273991
0.82420845
0.81578739
0.80682472
0.79624399
0.78456039
0.77445452
0.77282032
0.78540996
0.81537269
0.86093112
0.91867406
0.98069676
1.0380863
1.0823385
1.1120385
1.1281771
1.1345401
1.1339433
1.1324081
1.131979
1.1324404
1.130335
1.1255552
1.1168024
1.1032603
1.0833094
1.0591423
1.0324878
1.0051366
0.97784049
0.95375647
0.93484073
0.92126295
0.91051652
0.90095755
0.89070361
0.87826757
0.86295126
0.84751345
0.83615615
0.83205677
0.83581627
0.84686145
0.86348995
0.88249818
0.90060539
0.91690345
0.93337307
0.95198008
0.97344923
0.9971823
1.0223546
1.0457002
1.0630236
1.0711329
1.0712679
1.0652676
1.0556497
1.0444424
1.0356006
1.029683
1.0251202
1.018236
1.0088005
0.99552821
0.97806226
0.95566741
0.932362
0.91045798
0.8917727
0.87547008
0.8640218
0.85742741
0.85521635
0.85512186
0.85809264
0.86361496
0.87061324
0.87621993
0.8800933
0.88131243
0.8794202
0.87402937
0.86844618
0.86673395
0.87285499
0.88885543
0.9168062
0.95610663
1.0029512
1.0505488
1.0932349
1.1266842
1.1480741
1.1563009
1.1543673
1.1479488
1.1418858
1.1386467
1.1394484
1.1448814
1.1527692
1.1594759
1.1622085
1.16134
1.1568561
1.1483869
1.135234
1.1188664
1.09919
1.0758577
1.0485884
1.0206299
0.9940898
0.97023616
0.94831812
0.92940863
0.91253384
0.8966423
0.88015418
0.86537044
0.85333328
0.84449945
0.83683944
0.83103848
0.82643444
0.8236255
0.82373112
0.83242832
0.854247
0.89158018000000006
0.94183852
1.0016878
1.0642372
1.1218589
1.1672357
1.1996935
1.2215272
1.2364911
1.2467218
1.255285
1.2630102
1.2683105
1.2678455
1.2613669
1.2506815
1.2376305
1.222677
1.2066283
1.1897943
1.1704555
1.1460407
1.1160325
1.0827083
1.0481512
1.0137041
0.98039766
0.95007572
0.92291098
0.89862532
0.87740615
0.86166186
0.85200449
0.84725317
0.84442164
0.84238281
0.83998467
0.83855553
0.84225362
0.85774314
0.88976686
0.93965339
1.0038736
1.075917
1.145585
1.2030415
1.2411815
1.260047
1.2631212
1.2573452
1.249954
1.2481754
1.2529943
1.2598666
1.2600265
1.2467039
1.2156957
1.1693118
1.1162668
1.0706723
1.0431514
1.0359439
1.0407918
1.0440357
1.0314439
0.99672078
0.94656675
0.90046802
0.88002073
0.89656638
0.94207084
0.98927894
0.99944707
