0.79907322
0.83023537
0.88770688
0.93693515
0.95556681
0.94338161
0.91697697
0.89522581
0.88950968
0.89720821
0.90638932
0.90663315
0.89634818
0.88123403
0.86769987
0.86124139
0.86144946
0.86361123
0.86273145
0.8584086
0.85284529
0.84781685
0.84505885
0.84478593
0.84569931
0.84574174
0.84579246
0.84701591
0.84937153
0.85233816
0.85594788
0.86026152
0.86414153
0.87073532
0.88102892
0.89407487
0.90818954
0.92276898
0.93642266
0.94741022
0.95823309
0.97116614
0.98670349
1.0028072
1.0186517
1.031101
1.0365982
1.035378
1.0302706
1.0240323
1.0167254
1.0110427
1.0062587
1.0001055
0.99129781
0.98154674
0.97204179
0.96215052
0.95348137
0.94629585
0.93968689
0.93229156
0.92632823
0.92250211
0.91953139
0.91679932
0.91371208
0.90913677
0.9012358
0.89365952
0.88888037
0.88784823
0.89040708
0.89645998
0.90381041
0.90907728
0.91324392
0.91792584
0.92433444
0.9324419
0.94387692
0.95731478
0.96961968
0.97999734
0.98898579
0.99687321
1.0021731
1.0075236
1.0129285
1.0170448
1.0190987
1.0203383
1.0206872
1.0182009
1.0140158
1.008572
1.0015751
0.99229371
0.98344903
0.97581754
0.96813647
0.96029046
0.95257365
0.94469958
0.93510413
0.92714175
0.92214155
0.91955425
0.91793036
0.91656238
0.91337241
0.90571343
0.89562947
0.88605027
0.8795954
0.87751041
0.88227489
0.8927827
0.90527019
0.9174908
0.92843432
0.93753106
0.94365989
0.95062165
0.95999885
0.97154446
0.98448288
0.9987962
1.0126592
1.0227912
1.0297877
1.0341577
1.0358577
1.0341558
1.0313306
1.0275723
1.0214527
1.0134582
1.0048168
0.99577671
0.98431341000000006
0.97274569
0.96129093
0.9492544
0.93664059
0.92556852
0.91673344
0.90869354
0.9025375
0.89822945
0.8946058
0.88988259
0.88564117
0.88216762
0.87853043
0.87541747
0.87386773
0.87384195
0.87333711
0.87478345
0.87887168
0.88543284
0.89468742
0.90817431
0.92535165
0.94328236
0.96179972
0.9799759
0.99638596
1.009593
1.0216619
1.0328062
1.0414399
1.0473978
1.0508108
1.0511616
1.0466864
1.0407558
1.0348655
1.028992
1.0226583
1.0163645
1.008941
0.99795357
0.98512071
0.97249559
0.9615151
0.95231212
0.9471398
0.94550817
0.94491358
0.94455315
0.94470998
0.94531866
0.94463412
0.94488017
0.94588148
0.94593017
0.9434929
0.93905142
0.93254753
0.92321622
0.91406491
0.90757476
0.90476752
0.90496297
0.90946614
0.91712579
0.92534937
0.93383218
0.94318187
0.95327619
0.96201463
0.97147578
0.98144006
0.99076789
0.99914608
1.0080916
1.0172909
1.0239669
1.0279009
1.0279847
1.0228266
1.0116251
0.99810964
0.98498676
0.97322193
0.96442182
0.95933928
0.9566743
0.95277734
0.94888642
0.94507151
0.94107188
0.93726872
0.93546519
0.93533564
0.93414252
0.93189355
0.92810272
0.92197944
0.91282606
0.90359527
0.89592313
0.89001417
0.88734921
0.8892893
0.8956541
0.90382732
0.91494951
0.92780057
0.93996028
0.94963596
0.95724391
0.96268277
0.96516551
0.96779716
0.97283254
0.98064704
0.98948945
0.99940611
1.0079981
1.0118849
1.010822
1.0066089
1.0010677
0.99407086
0.98906575
0.9862338
0.98365712
0.97942341
0.97370117
0.96601675
0.95504002
0.94314455
0.93223349
0.92307746
0.91522449
0.91054653
0.90862009
0.90730674
0.90610672
0.90534215
0.90495754
0.90356021
0.9039214
0.90668343
0.91099527
0.91591399
0.9217442
0.92758903
0.9315045
0.93509102
0.93946179
0.94466616
0.94966083
0.95565486
0.96187181
0.9664572
0.96989843
0.97349203
0.9776598
0.98056043
0.98387632
0.98654275
0.98622918
0.98152011
0.9736591
0.96351902
0.95099615
0.9392696
0.93024185
0.92380775
0.91798021
0.91313866
0.90784416
0.89975478
0.88915866
0.8778209
0.86705887
0.85615588
0.84810349
0.8432494
0.84033186
0.83813835
0.83700649
0.83593508
0.83241702
0.82722594
0.82097483
0.81413977
0.80732335
0.80441828
0.8073981
0.81602178
0.83048556
0.85011061
0.87247993
0.89326041
0.91267861
0.92967273
0.94294905
0.95234602
0.95968425
0.9656849
0.96963269
0.97381329
0.97935298
0.9856605
0.99052746
0.99413036
0.99494617
0.9907435
0.9821623
0.9715181
0.96072048
0.94941413
0.94053574
0.93401406
0.92791531
0.92042251
0.91197333
0.90249301
0.89096569
0.87971
0.87047379
0.86370733
0.8584139
0.85575198
0.85470728
0.85266414
0.84877228
0.84353826
0.83779034
0.83155454
0.82919891
0.83258878
0.84117764
0.85329656
0.86793537
0.88299072
0.89601836
0.90885647
0.92300608
0.93826458
0.9523171
0.96467598
0.97338549
0.97688579
0.9776842
0.97998222
0.98630295
0.99476598
1.0049189
1.0127161
1.0137914
1.0068273
0.99524752
0.98278299
0.97097737
0.96224527
0.95593759
0.94921749
0.93897467
0.92694225
0.91501653
0.90433075
0.89673781
0.89280489
0.89043097
0.88492623
0.87644641
0.86515908
0.85221246
0.84023603
0.83332357
0.83289689
0.83681627
0.84422264
0.85302506
0.86088994
0.86627092000000006
0.8719962
0.87986769
0.88986405
0.90239406
0.91680418
0.93066405
0.93994669
0.94612807
0.95013186
0.95286664
0.95586318
0.96158191
0.969831
0.97767641
0.98488117
0.99056439
0.99332838
0.99158917
0.98739995
0.9814739
0.9733515
0.96436644
0.95624575
0.94931547
0.94131717
0.9339178
0.92684319
0.919154
0.91077761
0.90380239
0.89897465
0.89492337
0.89253665
0.89165319
0.89110271
0.88922964
0.88773983
0.88716497
0.886901
0.88789292
0.8912928
0.89702406
0.90287162
0.91060473
0.91992626
0.929463
0.93825534
0.94698953
0.95512238
0.96078704
0.96552562
0.97036148
0.97537756
0.97972701
0.98525134
0.99162183
0.99685472
1.0007687
1.0038363
1.005732
1.0042676
1.0016957
0.99822676
0.99297051
0.98541886
0.97688778
0.96749607
0.95589147
0.94398474
0.93310766
0.92347944
0.91422303
0.90721144
0.90257806
0.89914969
0.89741132
0.89805931
0.90019287
0.90032201
0.89888148
0.89515201
0.88899525
0.88238212
0.87971668
0.88335573
0.89205672
0.90528
0.92032705
0.93379222
0.94320861
0.95085624
0.95819691
0.96486635
0.9709258
0.97570528
0.97765457
0.97473947
0.97096051
0.96912456
0.97030011
0.97408529
0.97968013
0.98399963
0.98315535
0.97837223
0.97194543
0.9656869
0.95961579
0.95500404
0.95021793
0.94239839
0.93179454
0.9208644
0.91188212
0.90448389
0.9008422
0.89955508
0.89757161
0.89286519
0.88650284
0.87956755
0.87210997
0.86669396
0.86429299
0.864086
0.86412615
0.86533118
0.86724964
0.86848078
0.8696434
0.87193262
0.87572273
0.87959341
0.88605856
0.89512191
0.90517003
0.91457684
0.92315969
0.92985645
0.93297366
0.93485442
0.93754181
0.94184156
0.94692858
0.95376027
0.96073747
0.96478619
0.96519742
0.9626592
0.95761684
0.94882506
0.93916799
0.92935018
0.91893746
0.90793724
0.8981646
0.88994168
0.88155408
0.87393239
0.86733869
0.86143003
0.85554995
0.85211122
0.85150154
0.85189026
0.85215315
0.85137647
0.84845132
0.84190615
0.8356049
0.83216895
0.83269757
0.83726121
0.84590879
0.85654926
0.86583283
0.87437008
0.88313975
0.89270604
0.9026417
0.91427973
0.92643202
0.93645445
0.94402952
0.95014157
0.95553832
0.95923319
0.96372588
0.9686829
0.97219051
0.97275242
0.97094863
0.96668068
0.95876039
0.94915614
0.93908699
0.928582
0.9166421
0.90501434
0.89384931
0.88211923
0.87066291
0.86110199
0.85422049
0.84867315
0.84632992
0.84631766
0.84606196
0.84316625
0.83741032
0.82867961
0.81691272
0.8059234
0.79897122
0.79743341
0.80031546
0.80759813
0.81673653
0.82420764
0.8294447
0.83384325
0.839022
0.84498212
0.85482422
0.86821021
0.88254237
0.89525022
0.90583307
0.91358941
0.91746139
0.92022478
0.92375387
0.92798363
0.93080884
0.93215892
0.93018349
0.92258038
0.91024316
0.89602246
0.88249938000000006
0.86992775
0.86139463
0.85665753
0.85341186
0.84944109
0.84475671
0.83904728
0.8312703
0.82364423
0.81769561
0.81356402
0.8100336
0.80823503
0.80773981
0.80712553
0.80696994
0.80876756
0.81331941
0.81944481
0.82932606
0.84272336
0.85790352
0.87322894
0.88858913
0.90278929
0.91343206
0.92141435
0.92730627
0.93111617
0.93243154
0.93370635
0.93554768
0.93690427
0.93811468
0.9397757
0.94151564
0.94117429
0.94077896
0.94045305
0.93917363
0.93611281
0.93212093
0.92698844
0.91926925
0.91083
0.9031467
0.89659571
0.89024619
0.88548146
0.88179995
0.87743815
0.8725444
0.86827846
0.86518086
0.86181664
0.86009878
0.85960572
0.85865595
0.85608684
0.85287409
0.84959002
0.84601197
0.84503257
0.84841633
0.8560507
0.86599631
0.87814309
0.89042778
0.90002134
0.90680365
0.91207108
0.91684918
0.92042383
0.92557537
0.93242069
0.93954659
0.94578377
0.95156323
0.95612853
0.95728399
0.95601091
0.95278998
0.94740751
0.93915292
0.93042975000000006
0.9219589
0.9128511
0.90354327
0.89471665
0.88597041
0.87505712
0.86426384
0.85454568
0.84627068
0.8401211
0.83780173
0.83858049
0.83898733
0.83790314
0.8341608
0.82721883
0.81759343
0.809697
0.80612793
0.8066882
0.81087761
0.81735458
0.82397938
0.82817857
0.83313431
0.84101844
0.85250909
0.86706496
0.88388003
0.90001562
0.91173306
0.92003181
0.92684745
0.9338037
0.94108063
0.95013007
0.95926135
0.96502889
0.96647772
0.96452936
0.96030618
0.95329549
0.94668162
0.94089051
0.93469659
0.92711549
0.91927651
0.91155974
0.90301061
0.89549303
0.88985775
0.88548796
0.88059802
0.87624955
0.87235445
0.86810177
0.86450477
0.86279666
0.8624577
0.86013482
0.85596784
0.84909548
0.83951207
0.82953795
0.8240006
0.82567664
0.8334796
0.84658104
0.86191595
0.87589687
0.88624401
0.89578911
0.90677583
0.91940214
0.93359648
0.94773999
0.95869681
0.96269852
0.9624253
0.96044749
0.95870753
0.95828961
0.95979201
0.9607635
0.95688539
0.94816575
0.93600078
0.92249118
0.90937971
0.90043385
0.89610522
0.89392435
0.89226018
0.89017484
0.88668004
0.87996034
0.87312894
0.86778116
0.8643095
0.86278097
0.86402506
0.86693393
0.8686182
0.86916897
0.86864795
0.86690766
0.86362415
0.86136611
0.86109301
0.86235482
0.86606215
0.87302848
0.88254042
0.89153681
0.90065161
0.90880116
0.91475173
0.91872065
0.92291362
0.92794314
0.93207297
0.93566271
0.93804086
0.93824065
0.93579761
0.93390559
0.93402399
0.93521176
0.93664035
0.9368853
0.9337711
0.92461844
0.91257388
0.90011986
0.88872327
0.87902009
0.87166714
0.8649863
0.85580042
0.84494659
0.83401396
0.82446376
0.81674083
0.81299074
0.81242279
0.81214806
0.81093147
0.8087638
0.80572775
0.80082702
0.79722787
0.79601272
0.79687521
0.79948388
0.80462289
0.81150816
0.81777708
0.82407053
0.83055673
0.83685815
0.84227843
0.84887019
0.85685609
0.86493314
0.8731781
0.88177898
0.88994045
0.8952756
0.89956477
0.90304606
0.90540044
0.90693145
0.90922208
0.91196499
0.91263806
0.9111821
0.90721268
0.90042186
0.89091733
0.88218245
0.87584773
0.87109422
0.86722962
0.86327766
0.85774445
0.84863369
0.83911119
0.83123861
0.82559324
0.82165126
0.81901407
0.81565677
0.80891426
0.80032354000000006
0.79211559
0.78593993
0.78188413
0.78114925
0.78234198
0.78286116
0.78263546
0.78320193
0.78592681
0.79023805
0.79819075
0.80882719
0.81973679
0.82930392
0.83819683
0.84661829
0.85357713
0.86058139
0.86770229
0.8735229
0.87586619
0.87579538
0.87353214
0.8687519
0.86313842
0.8586743
0.85577419
0.85212525
0.84877675
0.84479581
0.83872688
0.83028237
0.82162001
0.81407318
0.80724843
0.80271121
0.80043639
0.79875238
0.795042
0.78973024
0.78267192
0.77353763
0.76419321
0.75714237
0.7536758
0.7526318
0.75567432
0.76224838
0.77076429
0.78017446
0.79117438
0.80343878
0.81518453
0.82716572
0.83932185
0.8507581
0.86019114
0.86932787
0.87856799
0.88707087
0.89528972
0.90352538
0.91057749
0.91309444
0.91191341
0.90683088
0.89775897
0.88592521
0.87462002
0.86550597
0.85765519
0.85183291
0.84745975
0.84292679
0.83633521
0.82949426
0.82342516
0.81808972
0.81457125
0.8137324
0.81476268
0.81455459
0.81373019
0.8117657
0.80797716
0.80265363
0.79799037
0.7950092
0.79293969
0.79330725
0.79672645
0.80277809
0.8102811
0.82066361
0.83363133
0.84738864
0.86150441
0.87581216
0.88930788
0.89948168
0.90824399
0.91603409
0.92259954
0.92812099
0.93407708
0.94016501
0.94406484
0.94614287
0.9462401
0.94362676
0.93724147
0.9292581
0.92049101
0.9104601
0.90015282
0.8909397
0.8830936
0.87480313
0.86806591
0.86306157
0.859028
0.85549525
0.85344772
0.85244383
0.85035902
0.84777221
0.84495475
0.84175705
0.83772093
0.83523169
0.8350003
0.83603778
0.83843065
0.84245736
0.84760389
0.85190386
0.8576056
0.86515596
0.87380517
0.88279408
0.89242834
0.90159208
0.90798186
0.91287548
0.9173946
0.92194854
0.92595871
0.93095644
0.93597353
0.93825445
0.93690416
0.93219443
0.92437513
0.91256523
0.90045629
0.88981287
0.88096908
0.87396736
0.86988713
0.86799626
0.86568237
0.86337888
0.86130818
0.85920201
0.85622321
0.85430018
0.85333111
0.85139125
0.84787402
0.84293736
0.83658865
0.82793613
0.82060689
0.81644814
0.81572475
0.8180774
0.82377038
0.83135813
0.83810999
0.84490412
0.85271459
0.86203862
0.87251763
0.88581441
0.90096309
0.91501149
0.9266275
0.93545743
0.94123723
0.94292021
0.94404695
0.94609921
0.94887536
0.95168199
0.95479045
0.95704401
0.95603438
0.952829
0.94820619
0.94192926
0.93262957
0.92173086
0.90942634
0.8954086
0.88191377
0.87202333
0.86706741
0.8647383
0.86505912
0.86545279
0.86303525
0.85699932
0.85002863
0.84447282
0.84148216
0.84177623
0.84326451
0.8432536
0.84100365
0.83889485
0.8388621
0.84117656
0.8452257
0.84874762
0.85034473
0.85163461
0.85875769
0.87484827
0.89739886
0.91904788
0.9311867
0.92965124
0.91974914
0.91607879
0.93037026
0.96214881
0.99651712
1.0127779
0.99711875
0.95595725
0.91720166
0.91230151
0.95291892
1.0159102
1.0503003
