0.82917423
0.8278936
0.86454876
0.91166156
0.94532776
0.95788646
0.95725854
0.95676308
0.96765718
0.99120459
1.0199979
1.0439616
1.0592525
1.067899
1.0745053
1.0830807
1.0947595
1.1063276
1.1115142
1.1074883
1.0946672
1.0759185
1.0542641
1.0340367
1.0174475
1.0038849
0.99133055
0.97823218
0.96295912
0.94366102
0.92134539
0.8985575
0.87800097
0.8610874
0.85064291
0.84658985
0.847212
0.85203584
0.86201839
0.87717822
0.8954251
0.91688036
0.94026598
0.96341621
0.98349935
1.0020214
1.019411
1.0351199
1.0490335
1.0617425
1.0717244
1.0754193
1.0729546
1.0651005
1.053312
1.0386433
1.026027
1.0168623
1.009283
1.0001866
0.98769667
0.96988626
0.94598045
0.92025552
0.89735203
0.87959563
0.86492727
0.8526426
0.84010651
0.82647195
0.81497278
0.81303198
0.82595561
0.85337202
0.89123386
0.93140605
0.96480157
0.98425741
0.99275757
0.99632137
1.0014196
1.0117137
1.0282111
1.0460567
1.0574972
1.0588119
1.0504762
1.0357528
1.0176294
1.0023618
0.99174218
0.98402978
0.97577761
0.96624072
0.95437402
0.93948205
0.92360053
0.90908608
0.89625699
0.88250428
0.86800086
0.85196165
0.83446524
0.81721686
0.80593871
0.80494136
0.81575486
0.83826132
0.8701321
0.90619798
0.93942265
0.96725323
0.98822151
1.0018401
1.0076345
1.0084655
1.0053729
0.99829633
0.98872004
0.97956851
0.97222815
0.96533796
0.95965109
0.95420242
0.94734604
0.93729373
0.92684392
0.91739052
0.90879123
0.90061486
0.89266198
0.88329714
0.87029409
0.85554755
0.84144686
0.82977321
0.82027088
0.81486658
0.81318766
0.81426849
0.8185109
0.82850118
0.84519839
0.86648496
0.89080369
0.91550318
0.93765495
0.95419819
0.96805641
0.98122217
0.99407928
1.0054492
1.0145926
1.0187408
1.0146953
1.0039662
0.99022031
0.97700786
0.96472903
0.95585786
0.94857691
0.9391846
0.92458206
0.90589253
0.88499155
0.86385048
0.84627112
0.83488483
0.82947698
0.82658184
0.8259807
0.82701114
0.83022047
0.83753198
0.85336938
0.87924035
0.91254751
0.94934081
0.98485981
1.014216
1.0333373
1.0449016
1.0526587
1.0598674
1.0674192
1.0764052
1.0840807
1.0858556
1.0800029
1.0682709
1.0536471
1.038171
1.0265559
1.0198914
1.0156939
1.0088636
0.99760834
0.98032744
0.95711779
0.93146633
0.9084821
0.89068396
0.87641881
0.86465819
0.85321005
0.84101431
0.82910505
0.82391983
0.83034306
0.84940283
0.87825732
0.91136521
0.94094049
0.96008007
0.96899579
0.97179344
0.9739932
0.97881613
0.98973305
1.0047478
1.0189243
1.0284593
1.0334357
1.034861
1.0332609
1.0315006
1.0304775
1.0286092
1.0218464
1.0109178
0.99580583
0.97693016
0.95576951
0.93571709
0.91794403
0.90130301
0.88634243
0.87353825
0.86299228
0.85350915
0.84786891
0.84650284
0.84801759
0.84976528
0.85033287
0.84731589
0.83856664
0.82593949
0.81365856
0.80619699
0.80567758
0.81594444
0.83646572
0.86354238
0.8919916
0.91936921
0.94294757
0.96038936
0.97270237
0.98235132
0.9908675
0.99729109
1.0034406
1.0085046
1.0101129
1.0053529
0.99495333
0.97936571
0.95941299
0.9383164
0.91986919
0.90552958
0.89338064
0.88314696
0.87313941
0.8619371
0.8491437
0.83854568
0.83268704
0.83192303
0.83569898
0.84289902
0.85092996
0.85655558
0.86134699
0.86782709
0.87820534
0.89240394
0.91160356
0.93335938
0.95306797
0.96717653
0.9751634
0.97731268
0.97377054
0.96799925
0.96230231
0.9569493
0.94962709
0.94104921
0.93026789
0.91626184
0.89963658
0.88308996
0.86779939
0.85285101
0.83908507
0.82682061
0.81627715
0.80736259
0.80429973
0.80934611
0.82252127
0.8419967
0.86595908
0.89077272
0.91237623
0.93070224
0.94758471
0.96482229
0.98151024
0.99902516
1.0153378
1.0270428
1.0313887
1.0295004
1.0227519
1.0119832
0.99979755
0.98810565
0.97680434
0.96318008
0.94850157
0.93282872
0.91606328
0.89819476
0.8815717
0.86652486
0.85164653
0.83694005
0.8231461
0.81072441
0.79927185
0.79222868
0.7917336
0.7984805
0.81135823
0.83036053
0.8529658
0.87510443
0.89446192
0.91081135
0.92431569
0.93426905
0.94348811
0.95315943
0.96266093
0.96955428
0.97437474
0.9763564
0.97450687
0.97005084
0.96591041
0.96360471
0.96205336
0.96211834
0.96257633
0.96084583
0.95361964
0.94207216
0.92718045
0.91029393
0.89410807
0.88195272
0.87440022
0.86883443
0.86419675
0.85935453
0.85421216
0.8495614
0.8506292
0.86045198
0.8787359
0.90253073
0.92842968
0.95188542
0.96888935
0.98091765
0.9914318
1.0030816
1.014499
1.0255354
1.0323157
1.0304951
1.0185653
1.0004849
0.98100605
0.96331013
0.95077691
0.94380483
0.93968672
0.9331706
0.92438403
0.91335614
0.90081491
0.8878511
0.87694847
0.86795592
0.8587043
0.84905007
0.84000304
0.8329495
0.82846508
0.83049122
0.84049128
0.85774588
0.87988089
0.90593344
0.93346828
0.95941703
0.98319016
1.0055197
1.0265076
1.0440876
1.0591632
1.0705703
1.0761651
1.0738188
1.0657138
1.0538376
1.0399351
1.0272136
1.0184044
1.0130018
1.0067955
0.99808434
0.98477483
0.96611291
0.94300319
0.9206401
0.90215272
0.88755994
0.87534445
0.86331285
0.84859585
0.82925017
0.80922713
0.79393435
0.78808431
0.79298507
0.80920746
0.83237868
0.85568605
0.87413862
0.88708641
0.89634663
0.90466128
0.91754022
0.93760977
0.9631383
0.98779171
1.0075958
1.017798
1.0157656
1.0032357
0.98625492
0.96961611
0.954467
0.94184093
0.93028296
0.91717324
0.89963874
0.88114904
0.86449042
0.85111421
0.84080138
0.83305508
0.82515007
0.81427278
0.80243224
0.79415445
0.7939173
0.80260821
0.82108117
0.84466186
0.86594619
0.87818248
0.87968045
0.87152958
0.85686452
0.84229553
0.83444815
0.83722519
0.84988794
0.87286028
0.90280649
0.93441394
0.96211323
0.98433054
1.000029
1.0089289
1.0139221
1.0184505
1.0234414
1.0257541
1.0243468
1.0164419
0.99982673
0.97420288
0.94447197
0.91532859
0.8899833
0.87105151
0.85940079
0.85283509
0.84675602
0.84038392
0.83389259
0.82881009
0.82703091
0.83320808
0.84881394
0.87161363
0.89809598
0.92498277
0.94860261
0.96546268
0.97753089
0.98753766
0.99735572
1.0062647
1.0154459
1.0236971
1.0292057
1.0321366
1.0349599
1.0384942
1.0402247
1.0386689
1.0310163
1.0149549
0.98972651
0.96120408
0.9346224
0.91315207
0.89777255
0.88823566
0.88199711
0.87644704
0.87385435
0.87790179
0.89096643
0.91108402
0.93653339
0.96206847
0.9825724
0.99643196
1.0077468
1.0211262
1.038362
1.0598601
1.0823743
1.0999828
1.1055974
1.0998819
1.0852154
1.0654464
1.0444409
1.0268118
1.0132921
1.0014501
0.99041132
0.97985315
0.968971
0.95525553
0.94015932
0.92337289
0.90432958
0.88323482
0.86360656
0.84771493
0.8362362
0.83044055
0.83094106
0.83683954
0.84569887
0.85885346
0.87677693
0.89913882
0.92443098
0.95300268
0.98288787
1.0105084
1.0340492
1.0534054
1.0682702
1.0771129
1.0824785
1.085684
1.0868379
1.084624
1.0807265
1.074548
1.0641706
1.0491973
1.030939
1.0100512
0.98599445
0.96167389
0.93889911
0.91811479
0.89796423
0.8796528
0.86230334
0.84430955
0.82565821
0.80863711
0.79540566
0.78729322
0.78794389
0.79949117
0.82171697
0.85128632
0.88675922
0.92442481
0.95990187
0.99028623
1.0155702
1.0356042
1.049341
1.0585857
1.064737
1.0681786
1.0674446
1.0650237
1.0612316
1.0553765
1.0470205
1.0374176
1.0260916
1.011108
0.99316523
0.97330701
0.95237093
0.92989833
0.90927287
0.89121402
0.87479487
0.8585482
0.84302924
0.82848836
0.81555006
0.8077002
0.80843728
0.81876935
0.83543413
0.85623539
0.87683813
0.89344827
0.90456647
0.9135343
0.92334989
0.93465588
0.94726564
0.9590668
0.96600249
0.96330368
0.95264481
0.93699668
0.92012489
0.90499884
0.89529694
0.89033491
0.88630783
0.88039881
0.87127943
0.85812344
0.84004457
0.82046363
0.80169925
0.78483606
0.76961964
0.75808826
0.75051231
0.7463451
0.7463238
0.75205807
0.76357685
0.77853974
0.79643532
0.81566159
0.83429061
0.8502977
0.86582776
0.88195649
0.89827253
0.91403019
0.92883042
0.9405678
0.94578528
0.94482207
0.93843781
0.927051
0.90963361
0.88911323
0.86718822
0.84568492
0.82785928
0.81847737
0.81904871
0.82637009
0.83659449
0.84432373
0.84471081
0.83483035
0.81922675
0.80323064
0.7913178
0.78576028
0.78725735
0.7930862
0.79914805
0.80491457
0.81227783
0.8239475
0.84058337
0.86452051
0.89407012
0.92508889
0.95307899
0.97682017
0.99543198
1.0080204
1.0163001
1.0223181
1.026792
1.0279736
1.0278844
1.0268207
1.0242753
1.0193104
1.013371
1.0060474
0.99538372
0.9810342
0.96368379
0.94372053
0.92043883
0.89696434
0.87526775
0.85618619
0.83927968
0.82591339
0.81562061
0.80700085
0.80042716
0.79770169
0.80001343
0.80670263
0.81948124
0.83839101
0.86213367
0.88815303
0.91670598
0.94630043
0.97392764
0.99736899
1.0157029
1.0275284
1.0308206
1.0282362
1.0225933
1.0161597
1.0094606
1.0056283
1.0047423
1.0048756
1.004557
1.0036843
1.0008085
0.99289536
0.98014457
0.96286918
0.94172896
0.9173414
0.89459085
0.87650585
0.86423443
0.85792077
0.85784767
0.86249707
0.86928687
0.87865705
0.89154546
0.90826789
0.9269084
0.94799493
0.96958322
0.98872023
1.0032694
1.0141186
1.0219064
1.0263146
1.0292744
1.0322528
1.0353268
1.0361501
1.0367444
1.0371999
1.0369412
1.0352996
1.0333381
1.0298052
1.0214897
1.0073045
0.98733825
0.96241736
0.93321976
0.90535463
0.88236344
0.86542477
0.85332287
0.84565925
0.84011909
0.83416116
0.82870099
0.82683102
0.83101509
0.84061711
0.85655939
0.87667157
0.8973027
0.91484064
0.93016581
0.94407231
0.95666981
0.96899519
0.9817143
0.99310404
0.99899989
0.99929343
0.99392868
0.98352635
0.96897898
0.95477019
0.94302109
0.93360807
0.92651846
0.92212803
0.91956075
0.91677746
0.91531826
0.91584103
0.91783463
0.91926471
0.92101735
0.92276786
0.92440758
0.92783016
0.93657325
0.95203489
0.97183843
0.99391823
1.0144673
1.0293653
1.0350533
1.0343256
1.0303569
1.0257763
1.0224863
1.0221638
1.0234447
1.0226936
1.0194869
1.0144619
1.0085467
1.0011154
0.99486899
0.98915799
0.98126016
0.9684988
0.95118132
0.92992442
0.90568539
0.88256144
0.86416426
0.85162041
0.84216103
0.8355539
0.82991553
0.82445
0.82088291
0.82458325
0.83925944
0.86495476
0.90001291
0.9398185
0.97764897
1.006084
1.0246309
1.0344641
1.0381322
1.0382055
1.0386269
1.0397674
1.0392421
1.0362797
1.0314955
1.0256202
1.0182223
1.0126189
1.0097434
1.0084904
1.0061923
1.0026657
0.99626811
0.98490633
0.96890547
0.95022717
0.93026137
0.90886698
0.88856179
0.87011725
0.85311929
0.83649173
0.8221036
0.81118835
0.80483784
0.80540543
0.81550965
0.83528743
0.86142657
0.89174532
0.92259879
0.95004914
0.97037333
0.98502616
0.99487159
1.0000079
1.001175
1.0002498
0.99761871
0.9922008
0.98649173
0.98244993
0.98049225
0.97827357
0.97616376
0.97209697
0.96354626
0.94976747
0.93274787
0.91331572
0.89018561
0.86378736
0.83406086
0.80127804
0.76627377
0.73535666
0.71356467
0.70379762
0.70643825
0.72056732
0.742313
0.76677458
0.79278103
0.82131035
0.85380797
0.88934915
0.92912804
0.97046918
1.0085895
1.0387844
1.0600758
1.0720869
1.0748512
1.0715295
1.0656013
1.058826
1.0498688
1.0404824
1.0301569
1.0176219
1.0017517
0.98440955
0.96609049
0.9459822
0.9247732
0.90359343
0.88293327
0.86214575
0.84403448
0.82955641
0.81790049
0.80680111
0.79630418
0.78640227
0.77828087
0.77623101
0.78566209
0.8088031
0.84198942
0.88044312
0.91673657
0.94430839
0.95991022
0.96797241999999994
0.97383929
0.98081684
0.99000204
1.0000454
1.0068315
1.0057809
0.99875378
0.98921878
0.98011325
0.9711556
0.96259828
0.95109274
0.93312903
0.9090161
0.88328151
0.86015013
0.84079817
0.82610301
0.81413893
0.80254633
0.79050838
0.7835902
0.78706865
0.80354579
0.83177316
0.8674134
0.90270552
0.92970353
0.946721
0.95646555
0.96356963
0.97059812
0.98102372
0.99338073
1.0034333
1.0075353
1.0061386
1.000711
0.99258407
0.98518355
0.98042253
0.97752832
0.97243445
0.96521186
0.954603
0.93972403
0.92076279
0.90068718
0.88091468
0.86111038
0.8422483
0.82506692
0.80944541
0.79410521
0.78187053
0.77469241
0.77400633
0.7804877
0.79570448
0.81841188
0.84490642
0.87227345
0.8983069
0.9208257
0.93704887
0.94896372
0.95808122
0.96545678
0.9713175
0.9780541
0.98547406
0.99133162
0.9945746
0.99537098
0.99363692
0.98840927
0.98263453
0.9777032
0.97311991
0.96629823
0.95693386
0.94320018
0.92339944
0.89867435
0.87261728
0.84818698
0.82620701
0.80886495
0.79612444
0.78652361
0.77797696
0.77238699
0.77145802
0.77664606
0.78971012
0.81227359
0.84277814
0.87606983
0.90855932
0.93658264
0.95734301
0.96877904
0.97451958
0.97727019
0.97833018
0.97828709
0.97821758
0.97722671
0.97312559
0.96717567
0.96096606
0.95516479
0.94796574
0.94048847
0.93151811
0.91956782
0.90465708
0.8895117
0.87543743
0.86144607
0.84745195
0.83288115
0.81750361
0.80165307
0.7912415
0.7909004
0.80275868
0.82549068
0.85629844
0.88933885
0.91814986
0.94061144
0.95810925
0.97324059
0.98670318
1.0011698
1.0155854
1.0267287
1.0312058
1.0296406
1.0229147
1.0118066
0.99895537
0.98668133
0.97500647
0.96112085
0.94565249
0.92829111
0.90906206
0.8887577
0.86901642
0.84995736
0.83142148
0.81492076
0.80184015
0.7922785
0.78488292
0.77939091
0.77516836
0.7735647
0.77859585
0.79550571
0.82491893
0.86112872
0.89448978
0.91539351
0.92014868
0.91462956
0.91333162
0.9278589
0.95853401
0.99209097
1.0098495
0.99836803
0.96217435
0.9260832
0.92087766
0.96132215
1.030663
1.0835085
