0.87242202
0.88649015
0.93744075
0.99763456
1.0386161
1.0472399
1.0273774
0.99393523
0.96210849
0.94112581
0.93035975
0.92318208
0.91364275
0.90244152
0.89487395
0.89630035
0.90826187
0.92775052
0.94760593
0.96017783
0.96231784
0.95696451
0.9498874
0.94527425
0.94460726
0.94617849
0.94631906
0.94140406
0.93217377
0.92271263
0.91787323
0.91955356
0.92801638
0.94062221
0.95350304
0.96189888
0.9667624
0.96918689
0.97067613
0.97083744
0.97091722
0.96933055
0.96396441
0.95336657
0.94092328
0.93000518
0.9235264
0.92306683
0.93028235
0.94322232
0.95779903
0.97034257
0.97972883
0.98483908
0.98456677
0.97940986
0.9712481
0.96145304
0.95078376
0.94213243
0.93874845
0.94195502
0.94986129
0.96091239
0.97230007
0.98064224
0.98232176
0.97833115
0.97032303
0.95972114
0.94567639
0.9298342
0.91263705
0.8953447
0.87912688
0.87000142
0.87140243
0.88368908
0.90225132
0.92313186
0.94035355
0.94997327
0.95148836
0.95074089
0.95272954
0.95920991
0.96735006
0.97271713
0.96894352
0.95219617
0.92502621
0.89694679
0.87825816
0.87552551
0.89018573
0.91787782
0.94891872
0.97254627
0.98378259
0.98388
0.97766586
0.9698419
0.96525889
0.9648886
0.96576692
0.96237732
0.95333042
0.93935076
0.9234248
0.90831831
0.899619
0.89979195
0.90865854
0.92237549
0.93986334
0.95816537
0.97441313
0.98511395
0.99060595
0.99025095
0.98357027
0.97015632
0.95299609
0.93421747
0.91573834
0.89951786
0.88928397
0.88647299
0.89037837
0.89944387
0.91267316
0.9275278
0.9408066
0.95117831
0.95929036
0.96505525
0.96681943
0.96392718
0.95595236
0.94236428
0.92299165
0.901714
0.88326421
0.87121092
0.86571372
0.86740483
0.87453206000000006
0.88455397
0.89422797
0.90488743
0.91703455
0.92987468
0.93901029
0.94279423
0.93854735
0.92610569
0.90774632
0.89164565
0.88380247
0.88604661
0.89431539
0.90360868
0.90704902
0.90095469
0.88777416
0.87754985
0.88019245
0.90070122
0.93668686
0.97939762
1.0144821
1.0279873
1.0138688
0.97658585
0.92772377
0.88123812
0.85074166
0.84381886
0.85890759
0.88630628
0.91576652
0.93866556
0.95062657
0.95152685
0.94810763
0.94732482
0.95302049
0.96285597
0.97374879
0.98017591
0.97851214
0.9678203
0.95562512
0.94943238
0.9543046
0.96885304
0.9896194
1.0085685
1.0184448
1.0159811
1.0062738
0.99600055
0.99005941
0.9887429
0.9896913
0.98694519
0.97571006
0.95685024
0.93820004
0.92854773
0.93294882
0.95148176
0.97900139
1.0060322
1.0233524
1.0284781
1.0251288
1.0191779
1.0141289
1.0117653
1.0098689
1.0040823
0.9905104
0.97224081
0.95548447
0.94696225
0.94909597
0.96281649
0.98304507
1.0021881
1.012086
1.0128238
1.0072949
1.0010514
0.99824721
1.0036373
1.0159531
1.029713
1.0372925
1.0353372
1.0225056
1.0011575
0.97695527
0.95882922
0.95238558
0.95830493
0.97330729
0.99285202
1.0106612
1.0214714
1.0245678
1.0234535
1.0215956
1.0198012
1.0179
1.0139295
1.004687
0.98765385000000006
0.96611683
0.94615966
0.93386787
0.93170982
0.94121811
0.9593569
0.98050514
0.99775512
1.0101154
1.0181544
1.0237384
1.0264953
1.028575
1.0283744
1.0232832
1.0103929
0.99265108
0.97366148
0.95785129
0.94853715
0.94989395
0.96157831
0.97994388
0.99987118
1.0187917
1.0340485
1.0439473
1.0488367
1.0515249
1.0532147
1.052885
1.0494593
1.0424108
1.0304997
1.0125923
0.99114882
0.97064086
0.95515092
0.94657368
0.94722524
0.95692117
0.97274748
0.98921264
1.0040618
1.0157838
1.0240561
1.0280058
1.0306543
1.0330886
1.0348908000000001
1.0326937
1.0270225
1.0172468
1.0040192
0.98847272
0.97620668
0.97073014
0.97337761
0.98234527
0.99653388
1.0120398
1.024451
1.0307387
1.0324372
1.0314606
1.0295097
1.0281508
1.0289979
1.0304213
1.0284942
1.0206453
1.0070087
0.98909684
0.96957107
0.95407478
0.94810067
0.95384433
0.96871848
0.98952923
1.0115916
1.0299783
1.0401328
1.0430135
1.0408154
1.0357284
1.0273143
1.0172881
1.005055
0.98996685
0.97103406
0.95342711
0.94174922
0.94006225
0.94904287
0.96964928
0.99764913
1.0260782
1.0471085
1.0579919
1.0578324
1.0484922
1.033904
1.0204537
1.0110667
1.0047536
0.99850978
0.99023871
0.97810372
0.96237785
0.947813
0.94184704
0.94936994
0.96989277
0.99958725
1.0314506
1.0569896
1.0691162
1.0678639
1.0576606
1.0442543
1.0307238
1.019958
1.0110242
1.001365
0.98817948
0.97484506
0.96557448
0.96430076
0.97083687
0.98550647
1.0040899
1.021555
1.0333367
1.0409426
1.0460033
1.0494412
1.0495996
1.0458003
1.0352751
1.0164895
0.99149894
0.96813512
0.95392169
0.95343043
0.96707949
0.9916241
1.0189099
1.0393817
1.0474856
1.0434668
1.0310825
1.0153659
1.0025421
0.996372
0.99582174
0.99529898000000006
0.99040487
0.97789048
0.95711056
0.929712
0.9030995
0.88429698
0.87755557
0.88153765
0.89452171
0.91145935
0.92760326
0.93912957
0.94918927
0.96070067
0.97537722
0.99084339
1.0052945
1.0140513
1.0135961
1.0034067
0.98960682
0.97788717
0.97120707
0.9682683
0.96636577
0.96024813
0.9463004
0.92610397
0.90696891
0.89569393
0.89462012
0.90154789
0.9106274
0.91397216
0.90613323
0.88996168
0.8745291
0.86956892
0.8797483
0.90492935
0.93778903
0.96680454
0.98067695
0.97685947
0.95926049
0.93627805
0.91560088
0.90506395
0.90642947
0.91688299
0.92995596
0.94371268
0.9567046
0.96932612
0.98154856
0.99604599
1.0120892
1.0268275
1.0360506
1.0390388
1.0349695
1.024205
1.0086144
0.99315356
0.98127865
0.97465616
0.97395869
0.97982293
0.99033857
1.0018781
1.0118459
1.0192979
1.0231961999999999
1.0221437
1.0168843
1.0088872
0.99882579
0.98604285
0.97201009
0.95817687
0.94528817
0.93239634
0.92112754
0.91226196
0.90612296
0.90161617
0.90098685
0.90507846
0.91388726
0.92485087
0.93840872
0.9527311
0.96562448
0.97406504
0.97903499
0.98051658
0.97851181
0.97263761
0.96521731
0.95677922
0.94702548
0.9356855
0.92498355
0.9159931
0.90907415
0.90493699
0.90537831
0.91007427
0.91671937
0.9235472
0.92988049
0.93456426
0.93616895
0.93583062
0.93542849
0.93560177
0.93479923
0.93294063
0.92941731
0.92324488
0.91292727
0.90116875
0.8911467
0.88585746
0.88584152
0.89310839
0.90617441
0.92125261
0.93190214
0.93608636
0.9321599
0.92110446
0.90530564
0.89172278
0.88488221
0.88635387
0.89392281
0.90580755
0.91800578
0.92712463
0.93210454
0.93623328
0.94206217
0.95005117
0.95870464
0.96597317
0.9681032
0.96193168
0.94839914
0.93252987
0.9198144
0.91365772
0.91631344
0.92715363
0.94222792
0.95560221
0.964783
0.96931573
0.96989039
0.96641744
0.96117479
0.95487316
0.94709224
0.93597326
0.92374103
0.91257471
0.90498713
0.90138422
0.90467884
0.91416889
0.92713614
0.93868032
0.94744179
0.95163144
0.95072466
0.94510183
0.93874298
0.93390385
0.9309816
0.92876569
0.92718275000000006
0.92484065
0.92058956
0.91535283
0.91283327
0.91545773
0.9231678
0.93485492
0.94871109
0.96129911
0.9689062
0.97136274
0.97083612
0.96934727
0.96683282
0.96392159
0.95982157
0.95285645
0.94098569
0.92690056
0.91415194
0.90606869
0.90310164
0.90690906
0.91591549
0.92729695
0.93678788
0.94527171
0.9530511
0.96045538
0.96585191
0.96992352
0.97094194
0.96695416
0.95666952
0.94346753
0.93067225
0.92132042
0.91743511
0.92140615
0.93221799
0.94646825
0.96067091
0.97345496
0.98326111
0.98859996000000006
0.9898587
0.98892774
0.98669551
0.98259791
0.97744145
0.97224541
0.96696041
0.9600779
0.95245555
0.94508527
0.93858279
0.93227597
0.92852541
0.92889664
0.93396264
0.94182324
0.95315778
0.96680048
0.9809069
0.99174535
0.99962547
1.0034006
1.0020797
0.99401825
0.98196091
0.96791996
0.9541978
0.94263633
0.93744649
0.93983875
0.9483801
0.95967075
0.97160692
0.98086523
0.9845063
0.98195497
0.97615384
0.96981023
0.96441896
0.96143423
0.96180843
0.96415832
0.96547248
0.96512673
0.96436875
0.96490806
0.96759316
0.97496934
0.98772318
1.0034719
1.0162979
1.022691
1.0199298
1.0077884
0.9878235
0.96759449
0.95393916
0.95143737
0.95907002
0.97574518
0.99570063
1.0124231
1.0200979
1.0199047
1.0145966
1.0082364
1.0038373
1.0051492
1.0114449
1.0189208
1.0227597
1.0212706
1.0134121
0.99960256
0.98253573
0.96725661
0.95707172
0.95292199
0.95522358
0.96402732
0.97734805
0.99156805
1.0049986
1.0171017
1.0271385
1.0334235
1.036754
1.0377187
1.0359343
1.0293216
1.0190192
1.0061503
0.99224416
0.97787703
0.96723878
0.9625372
0.96431077
0.96963751
0.97833163
0.98783329
0.99559541
0.99876223
0.99932506
0.9984706
0.99718888
0.99534294
0.99485298
0.99498804
0.99366079
0.98877747
0.98144925
0.97260421
0.96349419
0.95650002
0.95533566
0.9611792
0.97239273
0.98678932
1.0023491
1.0160734
1.0246021
1.0276582
1.0266731
1.0226762
1.015023
1.0049461
0.9932334
0.9801997
0.96537067
0.95229842
0.94424619
0.94336514
0.94842524
0.95976653
0.97478186
0.98994389
1.0004997
1.0072044
1.0105665
1.0117884
1.0108334
1.0107474
1.0118981
1.0133366
1.0129142
1.0114835
1.0083644
1.0023316
0.99234598
0.98036092
0.96770748
0.95574332
0.94695541
0.94550243
0.95326039
0.96913873
0.99078597
1.0148715
1.0360504
1.0483101
1.0496009
1.0415679
1.0280756
1.0134106
1.0041872
1.0046218
1.0143629
1.0274941
1.0387773
1.0426545
1.0360838
1.0188218
0.99838893
0.98308528
0.97970121
0.98910073
1.0110459
1.0391527
1.0651127
1.0808643
1.0856124
1.0810411
1.0712369
1.0601321
1.0529064
1.0500707
1.0485395
1.043656
1.0336471
1.0173471
0.99543805
0.97141323
0.95156969
0.94042203
0.93952049
0.94893207
0.96743555
0.99121722
1.0148441
1.0353955
1.0517783
1.0633873
1.0691739
1.0710004
1.0706342
1.0688284
1.0643277
1.0586773
1.0524979
1.0456375
1.0358653
1.024572
1.012022
0.99874235
0.9841951
0.97253762
0.96618159
0.96657831
0.97252101
0.98485077
1.0010706
1.017303
1.0290327
1.0358514
1.0371903
1.0333293
1.0255308
1.0176866
1.0113767
1.0059213
0.99994405
0.99339055
0.98569576
0.9768577
0.96949067
0.9677835
0.97382979
0.98609864
1.0023023
1.0193008
1.0335388
1.0420861
1.0469794
1.0515178
1.0576532
1.0633543
1.0670556
1.0651354
1.0545551
1.0338106
1.0089288
0.9871172
0.9750018
0.97420769
0.98585834
1.0050887
1.0249069
1.0380434
1.0441489
1.0447706
1.043145
1.0415639
1.0431683
1.0462712
1.0460503
1.0372427
1.0191696
0.9933646
0.96425734
0.93898984
0.92589835
0.92876769
0.94543964
0.97030101
0.9964138
1.0164006
1.0250159
1.0234025
1.0171102
1.0121848
1.0115865
1.0169907
1.02596
1.0329466
1.0311256
1.0197197
1.0013767
0.98174408
0.96606232
0.9617963
0.9714851
0.99309135
1.0194114
1.0461081
1.068087
1.0826191
1.0886285
1.0907085
1.0919185
1.0933655
1.0931632
1.0906389
1.0829675
1.0678565
1.0454308
1.0208828
0.99930493
0.98437878
0.97803262
0.98093586
0.9899767
0.99997357
1.0075315
1.0122595
1.0147806
1.0156792
1.0172547
1.0211991
1.0268308
1.0308925
1.0322734
1.0303316
1.024706
1.0144137
1.0023112
0.99089523
0.98209735
0.9757379
0.97447716
0.97880685
0.98792771
0.99834897
1.0101341
1.0215157
1.0309516
1.0364069
1.0403177
1.0436341
1.0466396
1.0483711
1.0503578
1.0518604
1.051191
1.0467295
1.0396688
1.0300663
1.0174312
1.0021541
0.98684702
0.97333027
0.96272878
0.95725259
0.95952857
0.96986441
0.98578265
1.0050216
1.0248312
1.0416277
1.0514073
1.0540763
1.0509052
1.0434009
1.0317151
1.0184945
1.0050332
0.99179109
0.97769848
0.96579957
0.95839436
0.95744137
0.96225062
0.97451025
0.99232154
1.0122073
1.0290834
1.0420233
1.0495974
1.0513085
1.047181
1.0410709
1.03535
1.0312216
1.0287287
1.0287086
1.0286306
1.023714
1.009728
0.9860504
0.95439767
0.91951573
0.8898838
0.87457857
0.87760338
0.89547059
0.92060375
0.9434021
0.95555002
0.95328812
0.94224979
0.93231792
0.93210144
0.94338049
0.96355047
0.98370746
0.9936663
0.98612444
0.96453764
0.93767473
0.9165458
0.90785665
0.91618589
0.93792733
0.9654016
0.9897029
1.0086525
1.0219706
1.0309408
1.0357981
1.0379222
1.0353198
1.0253062
1.0071032
0.98505792
0.96398794
0.94771804
0.93854107
0.93756809
0.9424066
0.94905608
0.95564006
0.9630393
0.97198725
0.98151553
0.99077115
0.99797918
1.0000161
0.99326899
0.97838174
0.95803484
0.93553702
0.91279475
0.89371134
0.88049508
0.87417896
0.87386121
0.88221411
0.90018044
0.9271124
0.95848364
0.99186486
1.0219455
1.043492
1.0517938
1.0485521
1.036421
1.0192102
1.0002663
0.98478791
0.97468952
0.96965836
0.96836979
0.97141707
0.97784245
0.98575499
0.99369157
1.0019542
1.0098655
1.0160773
1.020644
1.0246993
1.0277254
1.0271288
1.0215929
1.0108996
0.99568156
0.97749983
0.96184429
0.95401078
0.9565406
0.96708255
0.98298896
0.99960919
1.0128668
1.019907
1.0243208
1.0301156
1.0399839
1.0515964
1.0629282
1.0681126
1.06182
1.0410625
1.0111063
0.97919421
0.95312976
0.93797568
0.93726999
0.94826751
0.96445807
0.97888666
0.9890736
0.99453146
0.99675581
0.99882261
1.0044802
1.0133926
1.0210254
1.0222499
1.0137652
0.99415787
0.96503421
0.93359644
0.90914969
0.89857854
0.90395658
0.92326707
0.94931981
0.97323547
0.98822911
0.99392586
0.99331176
0.99077971
0.9888041
0.98844829
0.98674275
0.98040976
0.96829495
0.95463024
0.94344366
0.9368435
0.93309037
0.9292487
0.92171508
0.91155044
0.90614631
0.91653072
0.94825474
0.9963769
1.0457401
1.0777067
1.0794606
1.0538743
1.0214775
1.0100243
1.0367337
1.094543
1.150402
1.1557124
