0.62308153
0.67202643
0.70333457
0.69974509
0.6853999
0.69282116
0.73127953
0.77956291
0.80870346
0.80900466
0.79224147
0.77719699
0.77454903
0.77915288
0.77839334
0.76495834
0.7396536
0.71071655
0.68894095
0.67919139
0.68000831
0.686395
0.69202209
0.69556859
0.70033545
0.70694877
0.71417285
0.71527752
0.70258279
0.67889268
0.65289555
0.6331396
0.62714284
0.63244586
0.63980601
0.64411545
0.64375559
0.64227918
0.64853487
0.66563095
0.68985725
0.71525603
0.73364015
0.74199584
0.74536597
0.74870611
0.75505751
0.76442015
0.77180105
0.77451976
0.77433901
0.77259492
0.77106321
0.76964319
0.76474543
0.75570376
0.74354308
0.72794895
0.71129027
0.69605829
0.6840057
0.68055958
0.68784194
0.70042498
0.71201219
0.71574308
0.7085853
0.69865751
0.69421338
0.69732587
0.70677093
0.71578393
0.71915617
0.72036167
0.72321535
0.72860149
0.73544762
0.73838329
0.73462201
0.72739555
0.71882222
0.70957091
0.69963913
0.68789155
0.67843407
0.67874563
0.69113765
0.71269871
0.73565709
0.75105989
0.75847178
0.76386728
0.77224361
0.78640969
0.80267484
0.81282115
0.81429831
0.80820917
0.79624532
0.78348319
0.77147301
0.75787419
0.7445445
0.73199232
0.71946917
0.70981973
0.70265031
0.69556465
0.68953511
0.68368892
0.67720062
0.67218442
0.66767062
0.66168448
0.65439514
0.64499122
0.63497164
0.62813165
0.62499441
0.62555573
0.6305469
0.64018983
0.65803227
0.68649285
0.72046934
0.75192899
0.77248089
0.77788289
0.77582693
0.77823244
0.79130768
0.81525585
0.84083804
0.85500683
0.85433407
0.84229015
0.8250868
0.81171841
0.80354463
0.79529279
0.78351767
0.76550159
0.7421393
0.71973517
0.70143274
0.68664046
0.67515314
0.66567889
0.65972774
0.66204426
0.67180095
0.68293954
0.68875386
0.68439625
0.67442555
0.67032739
0.67863264
0.69867848
0.72268817
0.74019564
0.74927576
0.75372636
0.75441056
0.7497436
0.7343388
0.7046273
0.66911041
0.64034553
0.62553209
0.62687309
0.63830641
0.65225974
0.67047689
0.69534706
0.72478542
0.75484488
0.7778277
0.7898906
0.79708432
0.80581489
0.81757015
0.82902975
0.8316475
0.82079014
0.80104887
0.77948286
0.76225089
0.75138082
0.74180066
0.72923183
0.71438637
0.69990642
0.691062
0.69031941
0.69266374
0.6927625
0.68792551
0.67917882
0.67496248
0.68253955
0.69974065
0.71905434
0.72910003
0.7212552
0.70017969
0.67633462
0.6577493
0.64991926
0.64864846
0.645891
0.64105782
0.63695444
0.63847307
0.6517958
0.67545397
0.70288041
0.72845751
0.74588519
0.75274435
0.75262239
0.74931616
0.74753558
0.75179129
0.76123567
0.77328281
0.7852984
0.79325335
0.79623918
0.79488637
0.78783998
0.77583607
0.76062505
0.74355939
0.72983227
0.72312618
0.72158824
0.72320921
0.72405331
0.71970306
0.71257324
0.70569315
0.69912306
0.69496666
0.69212329
0.68866659
0.68830098
0.69326975
0.70274624
0.71527479
0.72413903
0.72254715
0.71027555
0.6899732
0.66785756
0.65207307
0.6449299
0.64533352
0.65187434
0.6617335
0.6758088
0.69718664
0.72454083
0.75432544
0.78082531
0.79714046
0.80299792
0.80304729
0.80177049
0.80407281
0.809822
0.81312902
0.81070289
0.80085306
0.78336259
0.76404279
0.74748035
0.73432098
0.72696237
0.723978
0.72191871
0.7216902
0.72302224
0.72526114
0.73068494
0.73830533
0.74523224
0.75030402
0.75006921
0.74182221
0.72665931
0.70562095
0.68227121
0.6627805
0.65027765
0.64672832
0.65204533
0.66143098
0.67145001
0.68067153
0.68787193
0.69604087
0.70808719
0.72279867
0.7390538
0.75318263
0.7596025
0.75831366
0.75184208
0.7433907
0.73951923
0.7422537
0.74749182
0.75243014
0.75304224
0.74751221
0.74119587
0.73763209
0.73642068
0.73701276
0.73539704
0.72899992
0.72082135
0.71237059
0.70344814
0.69429945
0.68326255
0.67152648
0.66391061
0.66174145
0.66349768
0.66555655
0.66195911
0.6519364
0.63965433
0.62845717
0.62194849
0.62046063
0.62043414
0.6226449
0.63056223
0.64701161
0.67562103
0.71330758
0.74933437
0.77525037
0.78557251
0.78080652
0.77177035
0.76750723
0.77012693
0.77807678
0.78425693
0.78341789
0.77923628
0.7774694
0.78240435
0.79499989
0.80805504
0.81265615
0.80586845
0.78919695
0.76947363
0.7551797
0.74775971
0.74386501
0.73886821
0.7277826
0.71180753
0.69663661
0.68514094
0.67866866
0.6755778
0.67130866
0.66648161
0.66379518
0.66310402
0.66460854
0.66449962
0.65683061
0.643303
0.62875548
0.61820159
0.6195451
0.63443211
0.65889955
0.68986804
0.72114941
0.74673768
0.76626691
0.78016986
0.79109605
0.80464581
0.82189029
0.84077047
0.85903838
0.8724892
0.87977258
0.88300438
0.88232649
0.87766709
0.8687995
0.85385117
0.83464108
0.81553543
0.79846602
0.78509381
0.77439059
0.76152934
0.74531213
0.72692494
0.70760516
0.69220043
0.68328631
0.6785741
0.67727256
0.67690438
0.67383956
0.67025923
0.66704567
0.66319528
0.66036913
0.65719092
0.65171929
0.64652173
0.6424812
0.64015983
0.64264107
0.65062923
0.66539672
0.68926831
0.7190454
0.74901408
0.77400471
0.78924153
0.79612144
0.79994635
0.80233587
0.80294753
0.80013561
0.79243531
0.78463424
0.78229554
0.78420191
0.78522919
0.77823299
0.76006362
0.73961562
0.72879916
0.73187303
0.74552873
0.75751009
0.75520729
0.73927226
0.71703331
0.69608827
0.68298293
0.67659476
0.6727325
0.67179586
0.67352292
0.67624521
0.67903064
0.67879473
0.67531871
0.67303907
0.67332403
0.67457709
0.67365818
0.66603935
0.65313032
0.64156796
0.6357933
0.63824826
0.64788261
0.66061328
0.67670997
0.69788062
0.72188887
0.74538456
0.76255461
0.76783906
0.76431544
0.75809648
0.75276396
0.75102604
0.74995085
0.74412111
0.73460735
0.72353678
0.712397
0.7042091
0.69821659
0.69259385
0.68878532
0.68596983
0.68188119
0.67628795
0.66863112
0.66132296
0.65989783
0.6649934
0.6730243
0.67972684
0.68101717
0.67905208
0.68030589
0.68631577
0.69379189
0.69577221
0.68508851
0.66413214
0.64198696
0.6261708
0.62123766
0.62379495
0.62470727
0.6202702
0.61127866
0.60079986
0.59582857
0.59883238
0.60667936
0.6186236
0.63301728
0.64900356
0.66995941
0.69543553
0.7210368
0.74368308
0.75985654
0.76942615
0.77714173
0.78436659
0.78837269
0.78532251
0.77087971
0.74705307
0.72269762
0.70458774
0.69541171
0.69288762
0.69004544
0.68402385
0.67717318
0.6715668
0.6695195
0.67042991
0.66993256
0.66764624
0.6657938
0.66561616
0.66965311
0.67638148
0.67954342
0.67664949
0.6671603
0.65245569
0.63979664
0.63302318
0.63115984
0.63437934
0.64097178
0.65086081
0.66873466
0.69498347
0.72481479
0.75203053
0.76869646
0.77261936
0.77065465
0.77041411
0.77695034
0.79010698
0.80229141
0.80679259
0.80240107
0.79124358
0.77946083
0.77187619
0.76669415
0.76062372
0.75025523
0.73287135
0.71280796
0.69705914
0.68957004
0.6931049
0.70369046
0.71106245
0.70983555
0.69947828
0.68432695
0.67619216
0.68124461
0.69551197
0.71156791
0.71895965
0.71205775
0.69632953
0.67870109
0.66370745
0.65409422
0.64804785
0.64575783
0.65245714
0.67061963
0.69882501
0.73175335
0.76003067
0.7791429
0.79145943
0.80049277
0.81040773
0.82230078
0.83263095
0.84018623
0.84549761
0.84789382
0.84862606
0.84738052
0.84145665
0.83234898
0.82145071
0.80742392
0.79189365
0.77512635
0.75617856
0.73977362
0.72809547
0.71952038
0.7142776
0.71020397
0.70551784
0.70323083
0.70335753
0.70255848
0.69865436
0.68863686
0.67344526
0.6596386
0.65066952
0.6467782
0.64674569
0.64736916
0.65066681
0.66305604
0.68707883
0.72151394
0.75989905
0.79188237
0.81333956
0.82573537
0.8315175
0.83568644
0.84013011
0.84253707
0.84374259
0.8443824
0.84349062
0.84321935
0.84356872
0.84247055
0.8422875
0.84361102
0.84502012
0.84731474
0.84774658
0.84228547
0.83175261
0.81747189
0.80218138
0.79106721
0.78393904
0.77678045
0.76705188
0.75288802
0.73764727
0.72905047
0.72946978
0.73591136
0.74166919
0.73783625
0.72300513
0.70282229
0.68268601
0.66805185
0.66025775
0.65594081
0.65578778
0.66181586
0.67365974
0.69218941
0.71450108
0.73486595
0.75339785
0.77082752
0.78650474
0.80336533
0.82031895
0.83408151
0.84603435
0.8561892
0.864091
0.87199717
0.87900304
0.8832777
0.88525326
0.88306268
0.87544084
0.86434276
0.85116417
0.83899378
0.83153588
0.82714988
0.82212473
0.81319616
0.79736092
0.77721471
0.75850211
0.74371719
0.73444785
0.73056227
0.73017009
0.73553925
0.74786952
0.76218849
0.77239399
0.77065224
0.75193478
0.72284782
0.69359707
0.67139691
0.6616989
0.6607688
0.66078415
0.66033668
0.66041655
0.66437899
0.67774295
0.69884691
0.72113246
0.73952035
0.74952307
0.75209736
0.75373259
0.75783118
0.76476792
0.77288471
0.7773325
0.77666232
0.77315433
0.76704828
0.75826408
0.7454954
0.72590101
0.70252723
0.68229119
0.67033324
0.67078224
0.68109019
0.69186819
0.69715253
0.69490538
0.68674881
0.68083158
0.68162999
0.68565482
0.68890425
0.68606343
0.67598931
0.66740079
0.66817184
0.68011518
0.70057482
0.72042825
0.73232311
0.73740466
0.73888667
0.7400686
0.74332637
0.74640825
0.74809864
0.75016814
0.75203056
0.75284421
0.75241503
0.75046946
0.75129221
0.75971593
0.77374159
0.78721134
0.79204349
0.78302407
0.76610053
0.7519733
0.74646033
0.75012178
0.75531505
0.75142919
0.73745583
0.71843895
0.70050241
0.69124241
0.69051656
0.69231452
0.69427397
0.69489984
0.69480948
0.69857067
0.70587752
0.71233821
0.71476852
0.70936097
0.69644676
0.68220284
0.67083066
0.66443636
0.66344903
0.66487556
0.66859832
0.6777375
0.69304428
0.7141075
0.73736615
0.75572947
0.76638927
0.77013564
0.7681157
0.76481632
0.76360785
0.76482795
0.77105723
0.7819287
0.79214791
0.79865399
0.79894533
0.79302946
0.78821097
0.78865348
0.79181447
0.79337511
0.78637515
0.76793011
0.74471194
0.72376467
0.70856674
0.6997064
0.69238541
0.68316714
0.67474757
0.66976328
0.66992866
0.67550207
0.68257776
0.68959684
0.69892081
0.71151785
0.72794298
0.74530612
0.75535201
0.75285315
0.7372049
0.71139953
0.68528296
0.66788672
0.66157753
0.66623884
0.67689158
0.686621
0.6953295
0.70427793
0.71334104
0.72529128
0.73916211
0.75231731
0.76623131
0.77977398
0.78951595
0.7947406
0.79467803
0.79160074
0.79170808
0.79611916
0.80047564
0.79927373
0.78782306
0.7693064
0.75375678
0.74725022
0.74922659
0.75269588
0.74735458
0.73079564
0.70928396
0.69029815
0.68032753
0.67986853
0.68308761
0.68716905
0.69214624
0.69805911
0.70730017
0.71841092
0.72531483
0.72592898
0.71937628
0.70581653
0.69151538
0.67970562
0.66974415
0.66297759
0.65824693
0.65499512
0.65760907
0.66764208
0.68349232
0.70303119
0.72014571
0.73023386
0.73424514
0.73368238
0.73147626
0.73096218
0.73162104
0.73320222
0.73639511
0.73979064
0.74324844
0.74679793
0.74845189
0.74903005
0.75020346
0.75154504
0.75473253
0.760017
0.76439999
0.76783558
0.769615
0.76733383
0.7633823
0.75960587
0.75554963
0.75424014
0.755047
0.75393847
0.74990764
0.74052787
0.72419338
0.70484697
0.68546854
0.66827011
0.65676031
0.65015293
0.64654361
0.64661493
0.64997284
0.65788548
0.67301955
0.6939088
0.71796806
0.74243161
0.76265939
0.77790684
0.79056829
0.80188421
0.81447741
0.82879447
0.84106841
0.84957871
0.8527804
0.84847258
0.83917417
0.8274057
0.81391239
0.80314341
0.79694857
0.79311277
0.79229319
0.79243799
0.79025085
0.78672145
0.78022199
0.76759487
0.75089127
0.73419022
0.72452388
0.73053318
0.75072193
0.77335429
0.78465728
0.77431846
0.74522932
0.71212325
0.68727567
0.67516753
0.67198976
0.66985644
0.6689473
0.67638924
0.69613529
0.72672597
0.75888813
0.78071673
0.79081255
0.79570043
0.80195539
0.81456015
0.83049754
0.84191395
0.84743724
0.8487825
0.84789332
0.84934565
0.85240076
0.85310632
0.85122569
0.84526341
0.8334054
0.8171094
0.79635609
0.77235582
0.75041588
0.73347084
0.72279703
0.71948925
0.72035738
0.72218569
0.72456534
0.72601416
0.72665987
0.72745026
0.72546775
0.71864529
0.70649093
0.68842641
0.66922164
0.65518205
0.64862406
0.65132829
0.66074261
0.66982095
0.67574321
0.67701753
0.67270269
0.66790152
0.66656442
0.66988789
0.68167851
0.70121846
0.72461649
0.75049781
0.77519212
0.79530939
0.81208898
0.82598359
0.83758451
0.84943077
0.86013928
0.86698146
0.86973838
0.86763854
0.86250482
0.85824132
0.854357
0.84878092
0.83996406
0.82594449
0.80928963
0.79438352
0.78077456
0.76610323
0.74660596
0.71886085
0.68756164
0.66090401
0.64347283
0.63748083
0.63872341
0.63930418
0.63878881
0.64114319
0.65115919
0.67555028
0.71187969
0.74923518
0.77843106
0.79183967
0.78895879
0.78024662
0.77567551
0.78057253
0.79567981
0.81295632
0.82347138
0.82462845
0.81749837
0.80821477
0.80439055
0.80744448
0.81528031
0.82382092
0.8267384
0.82208886
0.81188591
0.79795972
0.78458816
0.77527635
0.76959157
0.76827224
0.77088599
0.77405372
0.77777223
0.78213156
0.78562608
0.79123631
0.79961807
0.80660953
0.81061472
0.80693253
0.7907981
0.76546903
0.73545101
0.70569722
0.68392
0.6723022
0.66931446000000006
0.67467854
0.68569688
0.70081402
0.72105342
0.74370114
0.76494999
0.78222684
0.79264454
0.79849315
0.80611701
0.819229
0.83983266
0.86600255
0.89082326
0.90989037
0.92117622
0.92327518
0.91971383
0.9144923
0.90931034
0.90812994
0.91140158
0.91412782
0.91317166
0.90387024
0.8820284
0.85232587
0.82078375
0.79236174
0.77345243
0.76365701
0.7572783
0.7511928
0.7429306
0.73373937
0.72647607
0.72106555
0.71660628
0.71163351
0.7033744
0.6917148
0.6792291
0.67055311
0.67325582
0.6899499
0.71279073
0.73010694
0.73493645
0.73417855
0.74715355
0.783148
0.82623597
0.84705506
0.82973944
0.79723676
0.80180495
0.87169172
