0.83993106
0.84688214
0.8847198
0.92387943
0.94224038
0.93703653
0.92171149
0.91304215
0.92197609
0.94634252
0.97432495
0.99291703
0.99814055
0.99438965
0.98953764
0.98985643
0.99699684
1.0070695
1.01322
1.0127978
1.0072298
1.0001675
0.99403515
0.99094921
0.99012847
0.98870654
0.98427875
0.9770407
0.96805541
0.9574454
0.9465399
0.93652887
0.92786875
0.91974712
0.91405354
0.91059594
0.90783976
0.90514393
0.90342376
0.90303876
0.90337194
0.90685493
0.91504784
0.92798379
0.94334047
0.96127353
0.97962286
0.99528222
1.0064526
1.0139967
1.0184437
1.0192995
1.0188187
1.0184071
1.017906
1.0148755
1.0109111
1.0061771
1.0007693
0.99572178
0.99389539
0.99557231
0.99785583
0.99881971
0.99620448
0.9880355
0.97248486
0.95408954
0.93655685
0.92242413
0.91251186
0.90771691
0.90606743
0.9041899
0.90166334
0.89988819
0.90048014
0.90329439
0.91078757
0.92243408
0.93585928
0.94810683
0.95933684
0.96912222
0.97647983
0.98235865
0.98810389
0.99356568
0.99633392
0.99768223
0.99766707
0.99584321
0.99140379
0.98681574
0.98285808
0.97896473
0.97564265
0.97391236
0.97307224
0.97017623
0.9655675
0.95894824
0.94997252
0.93807637
0.92639118
0.91603152
0.90634347
0.89690051
0.88830653
0.88052081
0.87296727
0.86872924
0.87034379
0.87860452
0.89131186
0.90790321
0.92529687
0.93994661
0.95045126
0.95866479
0.9661389
0.97264678
0.97951218
0.98646631
0.99183378
0.99262786
0.99093214
0.98797188
0.98455835
0.98153298
0.98088024
0.98221641
0.98310814
0.98345355
0.98342751
0.98266286
0.97884524
0.97380005
0.96726696
0.95835131
0.9465736
0.93425658
0.92260878
0.91152396
0.90237668
0.89624761
0.8928536
0.88993867
0.88889262
0.88988558
0.89265054
0.89671209
0.90386096
0.91401959
0.92529727
0.93693574
0.94859883
0.95908074
0.96574054
0.970168
0.97318762
0.97515662
0.97572777
0.97724138
0.97972857
0.98142034
0.98164811
0.98097074
0.97938545
0.97573657
0.97250432
0.97082179
0.97012567
0.96779223
0.96386308
0.95676752
0.9448571
0.9289238
0.91227889
0.89744116
0.88480515
0.87644038
0.8726577
0.87246207
0.87377775
0.87833879
0.88653539
0.89765354
0.9108805
0.92605257
0.94136015
0.95377215
0.96354469
0.97152719
0.97839854
0.98320724
0.9883493
0.99367569
0.99770681
0.99926716
0.99944967
0.99833455
0.99479949
0.99017279
0.98572963
0.98185122
0.97685053
0.97310656
0.97074923
0.96877706
0.96582487
0.96249199
0.95781788
0.94973433
0.93865701
0.92600852
0.91299482
0.89941345
0.88843225
0.88093819
0.87610597
0.87203886
0.86903127
0.86658099
0.86413377
0.86366117
0.86795766
0.87810359
0.89186707
0.90876218
0.92601668
0.9403022
0.94896154
0.95397257
0.95691196
0.95840911
0.95969492
0.96171533
0.96330165
0.96135621
0.95679706
0.95062169
0.94396062
0.9372001
0.93336878
0.93251579
0.93234491
0.93078207
0.92704062
0.91992336
0.90786386
0.89337396
0.87899793
0.86653412
0.85595367
0.84957311
0.84708384
0.84677937
0.84758376
0.85027621
0.85494706
0.86056405
0.86835343
0.87882867
0.89129171
0.90315112
0.9152338
0.92668566
0.93598444
0.94220555
0.94667624
0.94970459
0.95036607
0.95014434
0.95034436
0.95102387
0.94968752
0.94788391
0.94530112
0.94132506
0.9358754
0.9314796
0.92885381
0.92647546
0.92379763
0.92007904
0.91391959
0.90297619
0.88992751
0.87674579
0.86478234
0.85440735
0.84743577
0.84342884
0.84052648
0.83867563999999994
0.83903014
0.84223136
0.847155
0.85545701
0.86704145
0.88073103
0.89468681
0.91006404
0.92655545
0.94252268
0.95730676
0.971058
0.98303036
0.99121979
0.99737657
1.0023884
1.0059714
1.0062096
1.0041282
0.99935213
0.99139827
0.98186351
0.97415752
0.96988227
0.96739609
0.96613857
0.96387133
0.95791847
0.94588236
0.93090096
0.91576856
0.9024525
0.89237162
0.8868703
0.88494379
0.88398397
0.8844062
0.88721475
0.89302607
0.90044141
0.91054028
0.92183832
0.93184735
0.93900533
0.94466967
0.94971205
0.95364151
0.95774577
0.96262757
0.96763368
0.97001369
0.97170055
0.97284081
0.97274499
0.9705255
0.96766565
0.96440572
0.9601471
0.95680919
0.95646328
0.9592077
0.96165941
0.96309778
0.96090952
0.95283573
0.93836869999999994
0.92158522
0.90598458
0.89333799
0.88526769
0.88201347
0.88160911
0.88041564
0.87914588
0.87873862
0.88039966
0.88478022
0.89451624
0.90944638
0.92712229
0.94576169
0.96454485
0.98202398
0.99558451
1.0063328
1.0146217
1.0200578
1.0212486
1.0202215
1.0175149000000001
1.0128751
1.0071988
1.0024876
0.99891188
0.99419912
0.9884448
0.9810831
0.97143587
0.95852336
0.94560232
0.9340421
0.92338381
0.91271715
0.90212837
0.89097598
0.87866161
0.8685974
0.86440902
0.86790315
0.87703031
0.8907998
0.90523654
0.9162412
0.92224537
0.92594287
0.93010956
0.93567711
0.9439264
0.95408772
0.96362338
0.96853404
0.97050552
0.97067536
0.96990201
0.96847343
0.96780641
0.96688395
0.96334937
0.9577047
0.95169889
0.94665184
0.94170957
0.93869509
0.93660072
0.9331535
0.92624102
0.91725775
0.90719054
0.89649129
0.88704435
0.8804703
0.87640927
0.87214656
0.86806896
0.86388929
0.85955487
0.8552973
0.85422717
0.85749363
0.86408321
0.87309923
0.88388999
0.89491998
0.90381039
0.91227828
0.92151075
0.93149892
0.94013146
0.94726033
0.95038776
0.94641925
0.93478733
0.91817158
0.89959441
0.88092785
0.86630507
0.85763214
0.85428349
0.85304038
0.85378517
0.8549175
0.85461164
0.8524024
0.84979642
0.84703555
0.84268374
0.83758025
0.83236032
0.82740086
0.82220883
0.82023523
0.82304353
0.83056913
0.84179934
0.85635347
0.87197403
0.88519851
0.89553413
0.90363686
0.91027933
0.91455077
0.91931472
0.92498611
0.93067196
0.93520203
0.93980773
0.94443531
0.94771987
0.95025448
0.95290586
0.95556287
0.95615954
0.95635855
0.95604874
0.95402394
0.94842809
0.94006676
0.92885931
0.91437122
0.8985489
0.88449065
0.87412159
0.86673033
0.86371568
0.86434374
0.8668001
0.86893195
0.8719289
0.87621784
0.88148764
0.88842765
0.89816192
0.91031726
0.92255862
0.93542829
0.9486518
0.96137279
0.97186696
0.98152943
0.98998825
0.99567878
0.99807772
0.99835816
0.99695475
0.99296639
0.98865705
0.9854679
0.98351973
0.98091362
0.97900969
0.97724913
0.97431525
0.96990113
0.96557958
0.96144661
0.95554951
0.9480765
0.9388551
0.92741673
0.9125634
0.89776384
0.88517083
0.87577523
0.86981205
0.86809511
0.86924234
0.87035651
0.87131391
0.87313868
0.87720139
0.88348593
0.89545689
0.91347787
0.93559739
0.95861681
0.98102774
1.0002582
1.0134605
1.0211686
1.0252559
1.0270436
1.0255787
1.0232435
1.0200941
1.0151952
1.0076108
0.99978244
0.99303245
0.98733593
0.98371727
0.98286318
0.98345019
0.98174717
0.97770393
0.97056518
0.95970616
0.94473768
0.92877966
0.91361269
0.89978604
0.88861445
0.8816671
0.87874889
0.87747145
0.87814793
0.88038719
0.88364496
0.88710787
0.89322236
0.90259645
0.91407632
0.92660654
0.93982423
0.95235999
0.96189178
0.96999131
0.97797805
0.98612965
0.99260921
0.99843418
1.0023894
1.0027294
0.99946271
0.99520698
0.99144913
0.98742051
0.98385877
0.98018921
0.97490782
0.96561084
0.95490112
0.94411028
0.93351186
0.92287537
0.91302014
0.9032333
0.89211798
0.88142493
0.8733386
0.86873109
0.86535501
0.86357845
0.86192002
0.8595467
0.85768764
0.86103658
0.87239128
0.89072091
0.91353746
0.93634589
0.95388179
0.96153999
0.96215953
0.95966172
0.95762046
0.95745211
0.96042161
0.96418317
0.96496573
0.96230375
0.95840264
0.9554526
0.95313433
0.95290576
0.95303206
0.95038626
0.94216898
0.93038814
0.91699321
0.90324499
0.89090849
0.88133837
0.87386706
0.86619107
0.85978108
0.85599678
0.85569712
0.85823018
0.86474413000000006
0.87382131
0.88274523
0.89020078
0.89705547
0.90392781
0.91015216
0.91746891
0.9263502
0.93590711
0.94366027
0.95079399
0.95697894
0.9611843
0.96320423
0.96453543
0.96541264
0.96451859
0.96314439
0.96204997
0.96084625
0.95713164
0.95226274
0.945964
0.93765719
0.92767191
0.91847602
0.91074266
0.90290237
0.8948192
0.88625506
0.87699803
0.86630849
0.85829869
0.85526555
0.85756217
0.86365041
0.8725825
0.88185279
0.88884414
0.89457942
0.90168497
0.91184737
0.9233886
0.93640058
0.94821685
0.9557783
0.95745317
0.95639691
0.95539799
0.95545931
0.95754192
0.96146592
0.96514671
0.96512153
0.96302428
0.96042001
0.95828227
0.95590851
0.95409002
0.95093151
0.9435235
0.93160121
0.91766973
0.90433392
0.89246533
0.88483095
0.88149954
0.88041293
0.8782284
0.87536416
0.87206573
0.86893921
0.86811346
0.87255143
0.88289472
0.89666739
0.91291683
0.92972919
0.94506324
0.95681585
0.96754749
0.97857929
0.98979081
1.0005697
1.0107782
1.0184861
1.0206703
1.0181402
1.0126756
1.0060031
0.99807148
0.99192962
0.98775697
0.9842023
0.98007459
0.97623713
0.97222942
0.96600624
0.95759256
0.947081
0.93438088
0.91850048
0.90333301
0.89117425
0.88296853
0.87839835
0.87804007
0.88048103
0.8833021
0.88672369
0.89208494
0.90014545
0.90939273
0.92085092
0.9331124
0.94374125
0.95050444
0.95465961
0.95689429
0.95710174
0.95671861
0.95723367
0.95849697
0.95815517
0.95748672
0.95656238
0.95489986
0.95152593
0.94840322
0.94563264
0.94198165
0.93753083
0.9333977
0.92972669
0.92504407
0.92105757
0.91819562
0.91572824
0.91164652
0.90693063
0.90108476
0.89312466
0.88361698
0.87480639
0.86796221
0.86258161
0.86034003
0.86179104
0.86645372
0.87251401
0.88146503
0.89288765
0.90497822000000006
0.91612573
0.9261365
0.93383368
0.93721588
0.93784818
0.93763733
0.93777968
0.93728422
0.93824957
0.94017009
0.94139942
0.94085813
0.93992982
0.93898282
0.93693333
0.93460694
0.93234883
0.92943675
0.92333694
0.91586023
0.90735414
0.89776695
0.88720035
0.87777761
0.87014313
0.86368871
0.85957946
0.85908376
0.86238938
0.86769145
0.87610983
0.88699327
0.89895778
0.91054158
0.92267668
0.93501402
0.94602249
0.95552624
0.96373092
0.96998621
0.97218397
0.97218118
0.9709631
0.96888516
0.96543237
0.96269421
0.96065046
0.9577045
0.95337347
0.94819537
0.94174267
0.93201399
0.92048031
0.90788639
0.89441463
0.87935726
0.86523619
0.85259813
0.84050609
0.828596
0.81773861
0.8078966
0.79787593
0.78939675
0.78340884
0.77959452
0.77583992
0.77306272
0.77105661
0.7698468
0.77135336
0.77969594
0.7973176
0.82345961
0.85743352
0.8958772
0.93338321
0.9632065
0.98406699
0.99519558
0.99725646
0.99276499
0.98652723
0.98128928
0.97710017
0.97507334
0.97547625
0.9774795
0.97837976
0.97975962
0.98123553
0.98138531
0.9783939
0.97249943
0.9628409
0.94806503
0.92969477
0.91058832
0.89325218
0.87817224
0.86841314
0.86444735
0.86497883
0.86770356
0.87253396
0.87835995
0.88342324
0.88770136
0.89201522
0.89647423
0.89966581
0.90322134
0.90764826
0.91268605
0.91736046
0.92316656
0.92979712
0.9356326
0.94036276
0.94461771
0.94802261
0.94865193
0.94798206
0.94657738
0.94428916
0.9400332
0.93588537
0.93205383
0.92755262
0.92237994
0.91788837
0.91437604
0.91061234
0.90809897
0.9071582
0.90664739
0.90362772
0.89834771
0.88993419
0.87774212
0.86294102
0.8488997
0.83771679
0.82918496
0.82426504
0.82272498
0.8235302
0.82478109
0.82896899
0.83714335
0.84897995
0.86326736
0.87940291
0.89487384
0.90613228
0.91307259
0.91694128
0.91905875
0.91884131
0.91924826
0.92057717
0.92196163
0.92256646
0.92397118
0.92623846
0.92762037
0.92761707
0.92563141
0.92043649
0.90994929
0.89689433
0.88330049
0.8706298
0.85949486
0.85190944
0.84758175
0.8446915
0.84306733
0.84346856
0.84597367
0.84893227
0.8536775
0.86015721
0.86756128
0.87459765
0.88302472
0.89322472
0.90414257
0.91527962
0.92648406
0.93620226
0.94126823
0.94241816
0.9405393
0.93674586
0.93162844
0.92873454
0.92891493
0.93055883
0.93177249
0.93140698
0.92752057
0.9177207
0.90392166
0.88858368
0.8738929
0.86047807
0.85131769
0.84658978
0.84487628
0.84521679
0.84834861
0.85427688
0.86188993
0.87214773
0.88514289
0.89967344
0.91279557
0.92495969
0.93547338
0.94362451
0.9496869
0.95586202
0.96291719
0.96972011
0.97644852
0.98257147
0.98663027
0.98572256
0.98161485
0.97511012
0.966984
0.958255
0.9517026
0.94768072
0.94400733
0.93953214
0.93320945
0.92367104
0.90877308
0.89129639
0.87313882
0.85549399
0.83869872
0.82485262
0.81407234
0.80513553
0.79831229
0.79444918
0.79324353
0.79232564
0.79202271
0.79146497
0.78965189
0.78597847
0.78324965
0.78296907
0.78499378
0.78949337
0.79664503
0.80523645
0.81271411
0.82073545
0.83076452
0.84363004
0.85846863
0.87655971
0.89612806
0.91358366
0.92656668
0.93516009
0.93966686
0.93986157
0.93886976
0.93859693
0.93888123
0.93685488
0.93249564
0.92426083
0.91080309
0.89287469
0.8740642
0.85698867
0.84199514
0.83038432
0.82207564
0.8159669
0.81011522
0.80719147
0.80924036
0.8176054
0.83284842
0.85557291
0.88349059
0.91195977
0.93824744
0.96051109
0.97748031
0.98723393
0.99259738
0.99516928
0.99586614
0.99523239
0.99551422
0.99694629
0.99775902
0.99774637
0.99716367
0.99585007
0.9922904
0.9892368
0.98769951
0.98726611
0.98623612
0.98472015
0.98092031
0.97211423
0.95817836
0.94103883
0.92292216
0.90498266
0.89121809
0.8830868
0.87952616
0.8773908
0.87574078
0.8731571
0.86902525
0.86568218
0.867132
0.87557387
0.88941394
0.90762488
0.92673959
0.94274775
0.95246595
0.95830528
0.96261751
0.96736991
0.97396214
0.98153103
0.98721739
0.98860179
0.98729786
0.9855268
0.98492446
0.98514557
0.98518186
0.98191679
0.97379758
0.96340092
0.95505061
0.95022847
0.94554253
0.93573405
0.91556376
0.88576163
0.85529342
0.83895717
0.84517604
0.86939449
0.89493222
0.90193163
0.88037363
0.84055686
0.81207175
0.82504765
0.8885137
0.97698271
1.0379789
