0.8147364
0.8089231
0.84573717
0.90711207
0.9682229
1.0127493
1.0356738
1.0418187
1.0383859
1.0322602
1.0248346
1.0137866
0.99579938
0.97273341
0.94948683
0.93171528
0.92179111
0.92009102
0.92384784
0.93012441
0.93781005
0.95077096
0.97410878
1.0108775
1.0587039
1.1115111
1.1599019
1.1949439
1.2111844
1.21039
1.198763
1.1840207
1.1717876
1.165886
1.1661496
1.169381
1.1714297
1.1718049
1.1703057
1.1671724
1.162528
1.1581956
1.1535318
1.1463425
1.1345077
1.1192309
1.1016284
1.0827689
1.0640018
1.0482053
1.0356135
1.0242422
1.0116464
0.99722545
0.97942726
0.95659582
0.92882418
0.89939771
0.8714729
0.8475674
0.83026753
0.82214316
0.82235914
0.8269453
0.83197897
0.83587054
0.83852356
0.84205496
0.85236167
0.87664154
0.91827992
0.97481954
1.0401068
1.1052758
1.1600662
1.1962884
1.212774
1.2143925
1.2083593
1.2009456
1.1976454
1.2005144
1.2072787
1.2129155
1.215169
1.2142749
1.2115413
1.2076447
1.2049908
1.2049731
1.2065412
1.2062283
1.203057
1.1972578
1.1893682
1.1790724
1.1685369
1.1595101
1.1521451
1.1441485
1.1350158
1.1240114
1.1099075
1.0903187
1.0658884
1.037732
1.0070289
0.9738842
0.94130125
0.91202695
0.88819081
0.86988957
0.85918633
0.85628557
0.85970086
0.86554021
0.87327402
0.8824789
0.89431741
0.91045563
0.93677266
0.97666827
1.0299366
1.0905859
1.1524648
1.2064715
1.244703
1.2616674
1.2611409
1.2495951
1.2349371
1.2217922
1.2155932
1.2158975
1.2191149
1.2187407
1.214097
1.2046757
1.1916833
1.1749116
1.1586282
1.1439281
1.1307422
1.1164843
1.10303
1.0902555
1.0776268
1.0624256
1.0457369
1.0268741
1.0054807
0.98051843
0.95530454
0.93136505
0.90895211
0.88575964
0.86229415
0.83815675
0.81449207
0.79369476
0.78290831
0.78735888
0.80925974
0.84591261
0.89357635
0.94453668
0.99092098
1.0270676
1.0541561
1.0749378
1.0932179
1.1118587
1.1341165
1.158851
1.1825147
1.201067
1.2140786
1.221052
1.2221797
1.2182403
1.2128266
1.2075078
1.2026014
1.1979507
1.1955695
1.1952729
1.1952564
1.1931384
1.1887724
1.1810321
1.1689742
1.1530729
1.1367347
1.1218249
1.1081883
1.0944339
1.0798512
1.062102
1.0386501
1.0089962
0.97622739
0.94365482
0.91382333
0.88879318
0.87023591
0.85681565
0.84493314
0.83197423
0.81813032
0.80501089
0.79572205
0.79590131
0.81150554
0.84470095
0.89264018
0.94995273
1.0094449
1.062773
1.102884
1.1283129
1.1420381
1.1484342
1.1509456
1.1534687
1.1581673
1.164131
1.1681241
1.1693743
1.1686882
1.1669359
1.1638722
1.1610618
1.1593754
1.1577882
1.1533487
1.1458181
1.1359711
1.1246726
1.111768
1.0993871
1.0888233
1.0794488
1.0680798
1.053531
1.034869
1.0115255
0.98266562
0.95086412
0.91876878
0.88805633
0.8581329
0.83036201
0.80600812
0.78695294
0.77498181
0.77531339
0.79187819
0.82572714
0.87275721
0.92826183
0.98442225
1.0333897
1.0687004
1.0911509
1.1039744
1.1119171
1.117849
1.1257924
1.1355978
1.1448292
1.1490577
1.1487495
1.1446477
1.1386905
1.1312293
1.1263134
1.1248322
1.1259654
1.1258541
1.1248636
1.1219182
1.1165787
1.1071004
1.0967316
1.0866803
1.077519
1.0672183
1.0573583
1.0472851
1.0361194
1.0215061
1.0051365
0.98695141
0.96627207
0.94062821
0.91119827
0.87865372
0.84489838
0.81193558
0.78535871
0.76800626
0.75980471
0.75694379
0.75761098
0.75942283
0.76293367
0.77189178
0.79520388
0.83870661
0.90270189
0.97994399
1.0598312
1.1279308
1.1723474
1.1880775
1.1810608
1.1618173999999999
1.1419174
1.1295812
1.1296087
1.1392776
1.1517547
1.1601345
1.1632811
1.1620261
1.1586549
1.155273
1.1546304
1.1554703
1.1541757
1.1473689
1.1356793
1.1203247
1.1029826
1.0855839
1.0711545
1.0598517
1.0496129
1.037943
1.0241562
1.0066537
0.98337592
0.9533762
0.91862404
0.88160144
0.84526208
0.81361547
0.79122878
0.77924734
0.77480262
0.77371278
0.77321919
0.77230615
0.77325062
0.78331891
0.81159451
0.86280999
0.93416792
1.0169158
1.0979317
1.1626505
1.200265
1.2096686
1.1984186
1.1780329
1.1589476
1.1491209
1.150662
1.1592839
1.1668863
1.1687225
1.16418
1.1553458
1.144718
1.1366739
1.1338736
1.135467
1.1373644
1.1375874
1.1353963
1.1306641
1.1227147
1.1134509
1.1042834
1.0950457
1.0833321
1.0688451
1.0513801
1.0304514
1.0044841
0.97488051
0.94359523
0.91265955
0.88280668
0.85682285
0.83607722
0.82003106
0.80551514
0.79204639
0.77993255
0.77158785
0.7704789
0.78470094
0.82026009
0.87917205
0.95672402
1.0461149
1.1356642
1.2127787
1.2662104
1.2933319
1.2959641
1.2802532
1.2530301
1.2243173999999999
1.2002383
1.1835281
1.1723256
1.1672799
1.1667122
1.1687393
1.1696013
1.1704018
1.1705993
1.1697811
1.1656607
1.1606698
1.1549074
1.1476961
1.135818
1.1201871
1.1003894
1.0770124
1.0502518
1.0247918
1.0029594
0.98496507
0.96729577
0.9484683
0.92567732
0.89778021
0.86522328
0.83393761
0.80891609
0.79304259
0.78490107
0.7832388
0.7840553
0.78422845
0.78306395
0.78669003
0.80134912
0.83199867
0.87951269
0.94269778
1.0139221
1.0827306
1.1391237
1.178991
1.2010922
1.2077163
1.203408
1.1953885
1.1878209
1.1819526
1.1769275
1.1733652
1.1701681
1.166011
1.16021
1.154962
1.1505577
1.1456882
1.1383937
1.1288449
1.1163245
1.100512
1.0827236
1.0672535
1.056747
1.0513896
1.0494238
1.0489824
1.0460786
1.0364631
1.018264
0.99376495
0.96604208
0.93771968000000006
0.91099899
0.88772124
0.86691939
0.84576654
0.82260693
0.79860353
0.7759511
0.75742633
0.74758436
0.75137924
0.77093671
0.80498111
0.85123196
0.90604447
0.96353389
1.0167782
1.0615405
1.0958654
1.1188195
1.1303551
1.1333748
1.1315518
1.1277045
1.1230678
1.1203125
1.1215286
1.1264288
1.1316898
1.1351672
1.1352525
1.1309962
1.1222575
1.1130535
1.1076773
1.1074379
1.1085751
1.1069304
1.098141
1.0802041
1.0546748
1.029815
1.0141836
1.011207
1.0151884
1.016361
1.0032905
0.96933941
0.9164369
0.85860317
0.81311772
0.79149365
0.79152894
0.80067553
0.79943391
0.77226943
0.71608523
0.64800429
0.59599094
0.58746817
0.63559768
0.73682341
0.86810491
0.99743668
1.0956478
1.1511114
1.1678377
1.1616427
1.1496605
1.1466113
1.1555069
1.1703541
1.1800505
1.1800451
1.1699336
1.1544175
1.1382269
1.1288676
1.128029
1.1333432
1.1382498
1.1409216
1.1391335
1.1323567
1.1194132
1.1038367
1.0872977
1.0711874
1.0551098
1.0423334
1.0334545
1.0273556
1.0199006
1.0095693
0.99359183
0.97031032
0.93882738
0.90347398
0.86821817
0.83652971
0.80956105
0.78977935
0.77722452
0.77097822
0.76943171
0.77475897
0.78827295
0.81113811
0.8434496
0.88672468
0.93882224
0.99521546
1.0498494
1.0989928
1.138224
1.1644523
1.1767614
1.1787924
1.1740462
1.1658533
1.1569786
1.1513175
1.1497228
1.1509523
1.1528924
1.1555051
1.157338
1.1565976
1.1522002
1.1456358
1.1375645
1.1283313
1.118905
1.1122375
1.1091181
1.1081181
1.1067258
1.1031567
1.0946959
1.0792005
1.0569705
1.0313355
1.0043776
0.97565631
0.9434216
0.90689179
0.86600895
0.82321996
0.78499
0.75980733
0.75210038
0.75927484
0.77387418
0.78718456
0.79279439
0.7909786
0.79127476
0.80690845
0.84543901
0.90259558
0.96405353
1.0101687
1.0246026
1.0034289
0.96085857
0.92226087
0.91108262
0.93648101
0.99048947
1.0499244
1.0868343
1.0820252
1.0376072
0.97465435
0.92249693
0.90429502
0.92954256
0.98866785
1.0580559
1.1108728
1.132088
1.1214668
1.0909006
1.0560931
1.0316352
1.0226335
1.023845
1.0230961
1.0111274
0.9837084
0.9428545
0.8941966
0.847238
0.80926519
0.78330485
0.76707981
0.75835873
0.75381662
0.75079339
0.74719065
0.74555481
0.74892167
0.76005695
0.7791402
0.80725811
0.8420908
0.87929677
0.91280824
0.94056881
0.96149345
0.9764346
0.98618043
0.99518012
1.0054145
1.0169603
1.0266857
1.0344841
1.0391441
1.0402054
1.0362547
1.0308668
1.0258115
1.0221004
1.0178318
1.0146718
1.0119109
1.0088584
1.0035862
0.99879795
0.99537096
0.99333524
0.98997006
0.98520557
0.97668337
0.96218891
0.93949995
0.91167423
0.88203595
0.85437834
0.83068156
0.81429414
0.80489194
0.79984285
0.7945928
0.78809541
0.77989935
0.77173509
0.76669308
0.77160231
0.79096181
0.82624611
0.87472249
0.93283606
0.99320146
1.0475118
1.0885651
1.1145421
1.1254176
1.1233836
1.1120078
1.0975418
1.084066
1.0737917
1.0673948
1.0665257
1.070252
1.0760327
1.0807888
1.0838675
1.0839157
1.0799392
1.0722119
1.0640411
1.0573224
1.0522343
1.0478417
1.0441315
1.039306
1.0311039
1.0186463
1.0041396
0.98936771
0.9751308
0.9618404
0.95050794
0.94024028
0.92896383
0.91555847
0.90120287
0.88682176
0.87268905
0.85963022
0.84923302
0.84154182
0.83523354
0.83019975
0.82782381
0.82894124
0.83368436
0.84356202
0.86040163
0.88413193
0.91266596
0.94457698
0.97845558
1.0116899
1.0407331
1.0642703
1.082289
1.0948152
1.1015267
1.1044493
1.1059426
1.107048
1.1067995
1.1057258
1.1043973
1.1026534
1.099232
1.0954021
1.0926177
1.0912023
1.0894097
1.0872083
1.0842571
1.0796207
1.0713792
1.0606885
1.0490901
1.0375883
1.0252801
1.0129749
1.0004207
0.98632669
0.96802059
0.94618256
0.92237418
0.89892643
0.87734451
0.86145582
0.8531686
0.85194195
0.85383267
0.85675708
0.85839735
0.8580237
0.85602508
0.85790157
0.86847528
0.89059523
0.92242114
0.96189789
1.0031469
1.0395448
1.0647261
1.0789088
1.084003
1.0836539
1.0800348
1.0778921
1.0783008
1.0803282
1.0802892
1.0789168
1.0760478
1.0723376
1.0668116
1.0628713
1.0610196
1.0604786
1.0576944
1.0532862
1.0465444
1.0375958
1.0257654
1.0146956
1.0054103
0.99705296
0.98560777
0.97020497000000006
0.94931939
0.92348976
0.89458911
0.86945042
0.8525485
0.84487567
0.84218272
0.84053008
0.8344248
0.82117489
0.80222586
0.78648511
0.78263034
0.79603847
0.82559793
0.86710004
0.9114457
0.95005923
0.97860041
1.0010731
1.0235851
1.0514597
1.0858781
1.1250126
1.1615763
1.1872941
1.1971695
1.1939169
1.1833628
1.1723025
1.1657552
1.1670952
1.1741166
1.1814882
1.1842174
1.1818102
1.1749774
1.1652148
1.1543257
1.1451425
1.1377269
1.1303669
1.1216928
1.1128128
1.1041111
1.0950382
1.0849526
1.0742273
1.061802
1.0459307
1.0261799
1.0043665
0.98164786
0.95804892
0.93384424
0.91026362
0.8877007
0.86613994
0.84740235
0.83489514
0.83082763
0.83539697
0.84860428
0.86976707
0.89628464
0.92438159
0.95254283
0.98074556
1.0086558
1.0350215
1.0601013
1.0840054
1.1053827
1.1214832
1.1320551
1.137985
1.1398582
1.1371423
1.1315941
1.1250743
1.1182775
1.11022
1.102197
1.0954209
1.0898792
1.0835502
1.0766638
1.0695169
1.0621404
1.0536006
1.0459322
1.040559
1.0369996
1.0316526
1.0225941
1.0078039
0.98626065
0.95783677
0.92728356
0.89982091
0.87914782
0.86490753
0.85664448
0.85170051
0.84733201
0.84143175
0.8378273
0.84171498
0.85793909
0.8873836
0.93018962
0.98148687
1.0337008
1.0777754
1.1103635
1.1301919
1.1388575
1.138317
1.1343964
1.1304337
1.1280371
1.1259586
1.1259276
1.1277818
1.1311168
1.1336352
1.1369695
1.1406453
1.1437330000000001
1.1431193
1.1402352
1.1347987
1.1267327
1.1144647
1.1009679
1.0874519
1.0748445
1.0621194
1.051797
1.0440862
1.0383981
1.032191
1.0262158
1.0193937
1.0102687
0.99625005
0.97864889
0.95805171
0.93557274
0.91184293
0.8907126
0.87384018
0.86119168
0.85047941
0.84179326
0.83377465
0.82584745
0.81860864
0.81718642
0.82544428
0.84571516
0.87763681
0.92063784
0.96999605
1.0191219
1.0615104
1.0947121
1.1171363
1.128992
1.1321778
1.1314543
1.1296667
1.1279237
1.126241
1.1260899
1.1269723
1.1275047
1.1265852
1.1256236
1.1246058
1.12251
1.1183496
1.1130691
1.1063016
1.0970805
1.0853348
1.0733292
1.0621818
1.051803
1.0419854
1.0333865
1.0247995
1.0138121
0.99897243
0.98111436
0.96096701
0.9390188
0.91671619
0.89637651
0.87851736
0.86178508
0.84521564
0.82901823
0.813263
0.79822487
0.78674796
0.78338597
0.79168835
0.81299533
0.84803838
0.89535197
0.94978127
1.0033097
1.0494415
1.0836194
1.1032604
1.1080998
1.1026948
1.0933372
1.0850852
1.0798299
1.0789721
1.0817985
1.0855477
1.0862122
1.0833481
1.0781755
1.0721791
1.0654577
1.059795
1.0557246
1.0519687
1.0453002
1.0355489
1.0234408
1.0101474
0.99589779
0.98340827
0.97417322
0.96774565
0.96091888
0.95256333
0.94149147
0.92712587
0.9087742
0.88950003
0.87216387
0.85854766
0.84761479
0.83962926
0.83342852
0.82776377
0.82105553
0.81628475
0.81649036
0.82441967
0.8401867
0.86527097
0.89782249
0.93440378
0.96993422
1.0033903
1.0333743
1.0591346
1.0788787
1.0944001
1.1059215
1.1137149
1.1168612
1.1187139
1.120776
1.1236013
1.1245345
1.1242777
1.121277
1.1144768
1.102352
1.0887101
1.0760121
1.0658856
1.0568535
1.0495742
1.0418817
1.0313677
1.0152621
0.99589182
0.97516019
0.95510294
0.93670334
0.92049809
0.90446432
0.8862442
0.8647348
0.84186726
0.8199071
0.80101081
0.78611398
0.77535276
0.76677655
0.75883102
0.75210214
0.75022457
0.75629792
0.77188103
0.79641359
0.8285049
0.865547
0.90658095
0.95302729
1.006751
1.0640874
1.1147232
1.1445231
1.1423207
1.1060017
1.0485829
0.99681382
0.98052486
1.0154052
1.0916025
1.1727802
1.207462
