0.85812848
0.84280276
0.86997463
0.92243073
0.97652453
1.0172917
1.0416607
1.0566358
1.070913
1.0917062
1.1187112
1.145917
1.1646877
1.1721191
1.1699385
1.1633087
1.1561752
1.1523019
1.1516514
1.1518799
1.1491934
1.1436754
1.1367196
1.1300943
1.1232016
1.1159128
1.1062914
1.0920536
1.0707679
1.0440224
1.0146128
0.98576744
0.95903463
0.93661055
0.91899589
0.90554513
0.89440463
0.8871212
0.88459544
0.88825713
0.89908906
0.92047155
0.95288415
0.99436309
1.040079
1.0867597
1.1294256
1.1636133
1.1858924
1.1984072
1.2034131
1.2034448
1.1999181
1.1966284
1.1942156
1.1916757
1.1868857
1.1814072
1.1756681
1.1700459
1.1644016
1.1613111
1.1606505
1.160576
1.1579011
1.1521238
1.1413359
1.123814
1.0986391
1.0689442
1.0373089
1.0062226
0.97769338
0.95514196
0.93904455
0.92776298
0.91858837
0.91119577
0.90524816
0.90168759
0.90300071
0.91441181
0.93880322
0.97576344
1.0215804
1.0722362
1.1211457
1.1616419
1.18948
1.2060589
1.2137934
1.2154634
1.2137068
1.2122069
1.2111933
1.2086136
1.202334
1.1932239
1.1817804
1.1686142
1.1550614
1.1441137
1.1359324
1.1281731
1.1178412
1.1038604
1.0845859
1.0590876
1.0287793
0.99817784
0.97063078
0.94778229
0.93040898
0.9194819
0.91402653
0.91244044
0.9146234
0.92284136
0.9386736
0.96232542
0.99330466
1.0307785
1.0715562
1.1110165
1.145817
1.1751948
1.1984087
1.2143146
1.2230426
1.2262581
1.22441
1.2171103
1.205785
1.1938749
1.1835585
1.1751884
1.169353
1.166871
1.1664306
1.1651805
1.1618101
1.1566442
1.1490976
1.1374467
1.1213336
1.1015786
1.0782295
1.0508059
1.0208949
0.99135791
0.96385189
0.93835537
0.91545865
0.89607605
0.88037439
0.86818979
0.86169953
0.86438675
0.87861286
0.9042795
0.94072921
0.98574249
1.0345927
1.0807192
1.120164
1.1513552
1.1738521
1.1875113
1.1952588
1.2005947
1.2052164
1.2081593
1.2096302
1.2096676
1.2072261
1.2001869
1.189468
1.1771382
1.1647576
1.1522515
1.1411255
1.1319453
1.1231062
1.1106653
1.0930622
1.0698907
1.0416497
1.0093632
0.97766555
0.9514141
0.9336289
0.92408251
0.92251948
0.92713834
0.93516343
0.94348536
0.95265207
0.96466033
0.98164547
1.004022
1.0328517
1.0670652
1.1033644
1.1362489
1.1633419
1.1834433
1.1965535
1.2024773
1.2047776
1.2063023
1.2081485
1.2083251
1.2070898
1.2039075
1.1980715
1.188076
1.1766366
1.1662188
1.158213
1.1510567
1.1449141
1.1379352
1.127167
1.1084653
1.0824251
1.0507761
1.0163778
0.98125228
0.95026593
0.92617867
0.90942289
0.89716207
0.88847953
0.88171159
0.87581218
0.86981626
0.8671631
0.87120994
0.88472096
0.90769615
0.94130201
0.9836626
1.0309898
1.0771236
1.1195843
1.155562
1.1831427
1.199729
1.2078595
1.2093694
1.2060489
1.1976407
1.1878254
1.178315
1.169962
1.1610548
1.1536933
1.1479721
1.1433674
1.1371185
1.1306741
1.123903
1.1165509
1.1064589
1.0955183
1.0835166
1.0695106
1.0504241
1.0274796
1.0013258
0.97390983
0.94670168
0.92504902
0.91155148
0.9062826
0.90510996
0.90591168
0.90559444
0.90360964
0.90141451
0.90680441
0.92619073
0.96296762
1.0136083
1.0730995
1.1311757
1.1775935
1.2039434
1.2120783
1.207095
1.1967561
1.1864466
1.18282
1.1860661
1.1926668
1.1959784
1.1946802
1.1876636
1.175876
1.1599154
1.1445469
1.1314015
1.1203067
1.1083399
1.0959783
1.0817772
1.0643959
1.0417521
1.0162361
0.98913832
0.96203069
0.93557702
0.91346918
0.89689729
0.88557677
0.87727221
0.87255987
0.87120513
0.87397771
0.88202927
0.8996783
0.92872765
0.96827603
1.0136975
1.0611687
1.1045594
1.1383918
1.1589238
1.1688437
1.1716017
1.1712963
1.1706183
1.1737828
1.1805218
1.1877419
1.1905232
1.1879791
1.1793546
1.1657967
1.149612
1.1365889
1.1290145
1.1255689
1.1214258
1.1134511
1.0978959
1.0735815
1.0426369
1.0124503
0.98839744
0.97201923
0.96000389
0.94832069
0.93146239
0.90690041
0.87734325
0.8523178
0.84100314
0.84842506
0.87277633
0.90780597
0.94284617
0.96845459
0.98105326
0.98618413
0.99257195
1.0080019
1.0356221
1.0743543
1.116254
1.1510118
1.1711022
1.1767511
1.1716646
1.161244
1.150395
1.1434425
1.1397687
1.1358864
1.1287268
1.1191659
1.1085186
1.0981574
1.0892288
1.0832024
1.0781853
1.0703239
1.0565093
1.037066
1.0130339
0.98632742
0.9599851
0.93805718
0.92178003
0.90970678
0.89954499
0.89020698
0.88061472
0.87097514
0.86415293
0.86544517
0.87871229
0.90480376
0.94215809
0.98763412
1.0351372
1.0775356
1.1102101
1.1327445
1.1461611
1.1519985
1.153054
1.1526584
1.1514404
1.1476986
1.1404881
1.1307365
1.1191327
1.1061518
1.0937941
1.0847126
1.0789326
1.0736775
1.066321
1.0553722
1.0394062
1.0177778
0.99289719
0.96881878
0.94763411
0.92832682
0.90907815
0.88797598
0.86316413
0.83462379
0.80707405
0.78833312
0.78535844
0.80135909
0.83614784
0.88528098
0.94037243
0.99168609
1.0331406
1.0628873
1.0819027
1.0921205
1.0976998
1.1024533
1.1076996
1.112041
1.1154188
1.1183033
1.1205263
1.1207986
1.1198863
1.1186145
1.1163841
1.1109001
1.1021477
1.0911076
1.0788094
1.0656119
1.0539882
1.0455522
1.0391447
1.030277
1.0157026
0.99331125
0.96307414
0.92730135
0.89287953
0.8666527
0.85164112
0.84473354
0.84038263
0.83183467
0.81491
0.79081629
0.7693809
0.76388603
0.78507024
0.83503458
0.90827341
0.99087863
1.0653984
1.1163008
1.1391056
1.138398
1.124559
1.1076625
1.0970799
1.0957405
1.1005571
1.1043805
1.1040645
1.0990436
1.091141
1.0818098
1.0747022
1.0707177
1.068094
1.0625211
1.053246
1.0401324
1.0236298
1.0029862
0.98025829
0.95639162
0.931753
0.90551306
0.8800203
0.85673001
0.83591258
0.81554105
0.7961264
0.77865262
0.76611295
0.76256664
0.77569135
0.81054891
0.86708892
0.93754717
1.0116715
1.0765237
1.1214534
1.1403113
1.1380936
1.124357
1.1100104
1.1013878
1.1029569
1.1120533
1.1222689
1.1255468
1.1208917
1.110109
1.0976379
1.0863979
1.0810847
1.0816224
1.084868
1.0847139
1.0796827
1.0685623
1.0517093
1.0287802
1.0036158
0.97843317
0.95515225
0.93396053
0.91828989
0.90909416
0.90552272
0.90347568
0.90138375
0.89710857
0.89083096
0.88434496
0.88470143
0.89740448
0.92497243
0.96361325
1.0086319
1.0512902
1.0835246
1.0990308
1.1009767
1.0947335
1.0872529
1.0824127
1.0848038
1.0930561
1.1028975
1.1078932
1.1074772
1.1017877
1.09302
1.0826026
1.0751803
1.0715847
1.0703836
1.0673692
1.0619449
1.0523481
1.0377122
1.0169684
0.99352859
0.96939491
0.94620731
0.92388245
0.90466171
0.88801835
0.87224081
0.85451973
0.83615646
0.81918502
0.80789597
0.80726968
0.82445309
0.86184251
0.91623789
0.97815495
1.037439
1.0826598
1.1060916
1.1057182
1.0895668
1.0680567
1.0511402
1.0438986
1.0491331
1.0625231
1.0764874
1.0831485
1.0810921
1.071113
1.0564142
1.0402862
1.0280958
1.0211771
1.0180137
1.0150095
1.0114203
1.0054362
0.99557549
0.98056914
0.96263576
0.94273954
0.92150058
0.89917699
0.87854953
0.86058179
0.84506759
0.83076663
0.81826073
0.80693021
0.79641842
0.78749681
0.78464792
0.79233945
0.81451721
0.85340079
0.91023653
0.98069971
1.0555827
1.1230198
1.1739849
1.2013968
1.2032578
1.1838703
1.154669
1.1268777
1.1084208
1.1021137
1.1074871
1.1186384
1.1279212
1.1298723
1.1249838
1.1157795
1.1055957
1.0972169
1.0929524
1.0907424
1.0856931
1.0730972
1.051968
1.0228961
0.98842309
0.95293322
0.92218482
0.89902463
0.88319245
0.87288733
0.8670482
0.86428882
0.86421788
0.86868644
0.8817793
0.90590509
0.94047319
0.98241671
1.0274523
1.069156
1.1009303
1.1194788
1.1264726
1.1252389
1.1193967
1.1130361
1.1098083
1.1096482
1.1096703
1.1075358
1.1030998
1.0963396
1.0873019
1.0775872
1.0697077
1.063921
1.0581814
1.0506987
1.0404743
1.025539
1.0036063
0.97493361
0.94244616
0.90946372
0.87910726
0.85538283
0.84144996
0.83669303
0.83677643
0.83710023
0.83466088
0.82871245
0.82180302
0.82107625
0.83495858
0.86806435
0.9181648
0.97798243
1.0366071
1.0821946
1.1060091
1.1079912
1.0954575
1.0785519
1.0655839
1.0624835
1.0700194
1.083349
1.0945507
1.0990871
1.0962964
1.0878824
1.0759004
1.0641188
1.0550612
1.0484358
1.0414568
1.0333435
1.0242719
1.0141008
1.0013504
0.98614641
0.96848003
0.94774715
0.9230269
0.89655109
0.87161702
0.85082639
0.83463052
0.82384989
0.81820806
0.81654259
0.81726429
0.82177838
0.8322958
0.85035452
0.8750843
0.90590876
0.94049361
0.97505971
1.004654
1.0282688
1.0464526
1.0605942
1.0712481
1.0813503
1.0924199
1.1038948
1.1125258
1.1175685
1.1184671
1.1152078
1.1073981
1.0982333
1.0902103
1.0841144
1.0776063
1.0699445
1.0593939000000001
1.0442903
1.022869
0.99782465
0.97222022
0.94848903
0.92645446
0.90697211
0.88892998
0.87054615
0.84984735
0.82924744
0.81243175
0.80374405
0.80585669
0.82194556
0.85166109
0.89151821
0.93480866
0.97696061
1.013509
1.0415693
1.0589036
1.0684523
1.0732897
1.0762405
1.0775668
1.0799263
1.0836115
1.0877539
1.0893923
1.0895264
1.0882201
1.0854812
1.0795516
1.0724034
1.0644908
1.0559375
1.0450772
1.0339289
1.0225887
1.0100976
0.99296658
0.97112575
0.94360335
0.91067092
0.87293349
0.83577984
0.80344077
0.77880971
0.76124667
0.75116939
0.74654331
0.74562804
0.74696866
0.75426749
0.7710246
0.80004228
0.84007416
0.89045983
0.94604909
1.0000965
1.0443312
1.0768923
1.0969621
1.1063479
1.1066424
1.1037599
1.1004867
1.0976603
1.0928192
1.0869416
1.0794612
1.0707296
1.0605334
1.0528626
1.0487711
1.047059
1.042873
1.0338379
1.016305
0.98876282
0.95172263
0.91177368
0.87466733
0.84450133
0.82131288
0.80503871
0.79261957
0.7816762
0.77171827
0.7681046
0.77646792
0.80099001
0.84112437
0.8939196
0.95120805
1.0032695
1.0413238
1.0635617
1.0713594
1.0688676
1.0599605
1.0508533
1.0439263
1.0391553
1.0343926
1.0307742
1.0279378
1.025276
1.0211333
1.0167289
1.0111567
1.0029744
0.99027136
0.97480604
0.95706413
0.93713493
0.91423589
0.89031021
0.86560357
0.84010657
0.81375893
0.7898356
0.7703954
0.75675376
0.74880952
0.74732715
0.75020827
0.75390945
0.75475536
0.75284004
0.74999131
0.75067403
0.76100109
0.78858737
0.83650915
0.90176423000000006
0.97532879
1.0467027
1.1037004
1.137112
1.1438906
1.1303871
1.1060545
1.0805972
1.0609126
1.0516168
1.0510358
1.0538067
1.0542291
1.0509507
1.0439146
1.0343743
1.0241519
1.0164475
1.0113483
1.0066104
0.99934066
0.98907262
0.9748961
0.95607832
0.93264155
0.90688179
0.87997053
0.85236764
0.82474334
0.79956664
0.77835122
0.76194646
0.75145475
0.74952418
0.75781491
0.77708086
0.80768427
0.84997569
0.90146591
0.95694924
1.0103788
1.0570035
1.092274
1.1131241
1.1201356
1.1179799
1.1113889
1.1039995
1.0988433
1.09836
1.1015958
1.1051872
1.1064212
1.1050056
1.1009766
1.0947444
1.0882951
1.0845522
1.083793
1.0833607
1.0801508
1.0720615
1.0569072
1.0334912
1.0038681
0.97275155
0.94391373
0.91882096
0.89783542
0.88042425
0.86423355
0.84655565
0.82740515
0.8098253
0.79762442
0.79395505
0.80170158
0.8220997
0.85296317
0.88911796
0.92587005
0.95972248
0.98793454
1.0086324
1.0232555
1.0347548
1.04495
1.0535836
1.0610443
1.0676197
1.0726179
1.0747086
1.0751556
1.0761263
1.0783942
1.0803086
1.080878
1.079007
1.0732386
1.0623346
1.0487025
1.0359448
1.0260746
1.0177788
1.0093823
0.99818357
0.98124932
0.95678229
0.92778279
0.89934869
0.87556609
0.8570249
0.84297216
0.83076022
0.81752668
0.80216162
0.78897516
0.7847208
0.79500608
0.8205878
0.85876028
0.90222287
0.94155502
0.96816456
0.9807282
0.98308972
0.98162957
0.98116728
0.98614092
0.99682461
1.0098829
1.0198083
1.0252505
1.0269478
1.0267413
1.0251337
1.0241846
1.0239373
1.0228871
1.0182678
1.0111983
1.0032487
0.99539204
0.98604602
0.97499703
0.96077623
0.94204535
0.91787471
0.89191774
0.86795707
0.84825224
0.83144946
0.81641171
0.80083631
0.78389599
0.76716068
0.75805508
0.76449311
0.79157747
0.83752511
0.89673519
0.95835278
1.0104619
1.042986
1.0553659
1.0525079
1.042726
1.0326145
1.0288522
1.0325214
1.0405828
1.046798
1.0493602
1.0476569
1.0428749
1.0353243
1.0284075
1.0230037
1.0184417
1.0117258
1.0036261
0.99399722
0.98253618
0.96693966
0.94817128
0.92589165
0.90019852
0.87073649
0.84153811
0.81556831
0.79491237
0.77894092
0.76918718
0.76578534
0.76958661
0.7813443
0.80539338
0.84383271
0.89582193
0.95513959
1.0155159
1.067909
1.104509
1.1194781
1.1162218
1.1009274
1.0820913
1.0657105
1.0590405
1.0629274
1.0739336
1.0842982
1.0907244
1.0903143
1.0833796
1.0712344
1.0605547
1.0549121
1.0547081
1.0551639
1.053297
1.0442771
1.0254349
0.99618799
0.96312932
0.93235369
0.90827678
0.89032554
0.87763424
0.86542511
0.8492581
0.82743409
0.80350231
0.7832864
0.77382119
0.78074279
0.80722256
0.85058333
0.9036809
0.95699309
1.0029108
1.0360791
1.0560944
1.0672439
1.0774887
1.0917701
1.1103365
1.1284989
1.1405697
1.141434
1.1316374
1.1183621
1.1130725
1.1223325
1.1434716
1.1642083
1.169393
1.148003
1.1028639
1.0527865
1.0257903
1.0417969
1.0992543
1.1697409
1.206438
