0.67476031
0.71461743
0.76550972
0.79544217
0.79375795
0.77098209
0.74521026
0.72989384
0.72562586
0.72371018
0.71880563
0.71146645
0.70563981
0.70539165
0.71142424
0.72031958
0.7279678
0.73289882
0.73468396
0.73275252
0.72860385
0.72467959
0.72341415
0.72927298
0.74398997
0.76389008
0.78308508
0.79686705
0.80338643
0.80633187
0.81236077
0.8241056
0.83860347
0.85173121
0.85844273
0.85621068
0.85140519
0.84952263
0.85012402
0.84891929
0.83789029
0.81043838
0.76904809
0.7251538
0.69054561
0.67127496
0.6674807
0.6716996
0.67457229
0.67543589
0.67778786
0.68616407
0.70508671
0.7335472
0.76477678
0.79211348
0.81240873
0.82476395
0.83058793
0.83467512
0.83901413
0.84152953
0.84352877
0.84486604
0.84500971
0.84708735
0.85298797
0.86029046
0.86544762
0.86631193
0.86196126
0.85508993
0.85323685
0.859641
0.8691805
0.87526809
0.86829924
0.84235954
0.80265207
0.76084037
0.72774784
0.70971674
0.70674706
0.71293916
0.72262351
0.73655602
0.75761828
0.78657588
0.82424706
0.86490048
0.8989628
0.92161303000000006
0.93267005
0.9353005
0.93606907
0.94112536
0.95066805
0.96013406
0.96568866
0.96324854
0.95059116
0.93386475
0.91902199
0.90882745
0.90477437
0.90355457
0.89796746
0.88310323
0.85881135
0.82735628
0.7932246
0.7635839
0.74230836
0.7293905
0.72691561
0.73427519
0.74889425
0.76996543
0.79568619
0.82223096
0.84646372
0.86614641
0.87785728
0.87894716
0.87126628
0.85759813
0.8409728
0.82904882
0.82522713
0.82761297
0.83408625
0.84108405
0.84507314
0.8467346
0.84929313
0.85271735
0.85332791
0.84803492
0.83287929
0.80600187
0.77517417
0.74853739
0.73076182
0.72397634
0.72466383
0.72581943
0.72351279
0.71883466
0.7143234
0.71217843
0.71464178
0.72000035
0.72394669
0.72728075
0.73089015
0.73532462
0.74350632
0.7563872
0.77183479
0.78813414
0.80448363
0.81868103
0.8287896
0.83643859
0.84326132
0.8503881
0.8624344
0.87940917
0.89590082
0.90597837
0.90321344
0.88355738
0.85014544
0.81185019
0.7768293
0.74973373
0.73308967
0.7245177
0.71907727
0.71712898
0.71866276
0.72207949
0.72710162
0.73251398
0.73647407
0.74011358
0.74689681
0.75745935
0.76862166
0.77683928
0.77689405
0.76483212
0.74555588
0.72537565
0.70862674
0.69874783
0.69459017
0.69136488
0.68667912
0.68244439
0.6816245
0.6872303
0.70284325
0.72703925
0.75375637
0.7799674
0.80126412
0.81373923
0.81850208
0.81832123
0.81548621
0.81320766
0.8147063
0.81983932
0.82622259
0.83319803
0.83889133
0.84054271
0.84062709
0.84050407
0.83967225
0.83936804
0.83957944
0.8381276
0.83416132
0.82897192
0.82315018
0.81713871
0.8136755
0.81275135
0.81078928
0.80727965
0.80024047
0.78755171
0.77171439
0.75692885
0.74653696
0.74391811
0.75134791
0.76698632
0.78654583
0.80722557
0.8249419
0.83506878
0.83915159
0.8389441
0.83604121
0.83519665
0.83969243
0.84874383
0.86038669
0.87283709
0.88298818
0.88874053
0.89254461
0.89549306
0.89560334
0.89458075
0.89225345
0.88799338
0.88533062
0.88715289
0.89200067
0.89598857
0.89445019
0.88203014
0.85684242
0.82456217
0.79227652
0.76501813
0.74887678
0.74483628
0.75036983
0.76513431
0.78873447
0.81883471
0.85286406
0.887784
0.91836391
0.94021448
0.95445447
0.96306172
0.96687212
0.97055318
0.97487347
0.97702235
0.97650645
0.97320925
0.96679588
0.95962167
0.9556486
0.9556317
0.95723122
0.9585404
0.95453209
0.93871796
0.91202671
0.87699472
0.83755628
0.80170159
0.77579131
0.761666
0.75891592
0.76564394
0.77746033
0.79035577
0.80456773
0.82066198
0.83811421
0.85981614
0.8850711
0.90965812
0.93125599
0.94744297
0.95570903
0.95707608
0.95536311
0.9529288
0.95089486
0.95166503
0.95426587
0.95494454
0.95479393
0.95355826
0.95006401
0.94617995
0.94212425
0.93460684
0.92063334
0.89906582
0.86930196
0.83342645
0.79889629
0.77140039
0.7520546
0.74325531
0.74340382
0.74890562
0.75990568
0.77691777
0.79785097
0.81979275
0.83978131
0.85391893
0.86050482
0.86295554
0.86369602
0.86186764
0.85886334
0.85337668
0.84433262
0.83629946
0.83433511
0.83982902
0.85163643
0.86658761
0.87947847
0.8876588
0.89527111
0.90642807
0.92148249
0.94135512
0.96117788
0.9737445
0.97746743
0.97467015
0.9691121
0.96542115
0.96580829
0.96585844
0.95736302
0.93550496
0.89897804
0.85132254
0.80454187
0.76852407
0.74672595
0.73867574
0.73916145
0.74182036
0.74565065
0.75490758
0.77290805
0.79912452
0.83060211
0.85954197
0.87715331
0.88360938
0.88206515
0.87622195
0.87150812
0.86978625
0.86846907
0.86574325
0.8624418
0.85902148
0.85569947
0.85448956
0.85371411
0.84841122
0.83865538
0.82378768
0.80343933
0.78183978
0.76314219
0.74910996
0.74139098
0.74120022
0.74686339
0.75584536
0.76812308
0.78271083
0.79739644
0.81371665
0.83117021
0.8474412
0.86266484
0.87714428
0.89053469
0.90419354
0.91987133
0.93582701
0.94807804
0.95524459
0.95588871
0.94911174
0.94059919
0.93344586
0.92623057
0.91772398
0.90598649
0.88989236
0.87315648
0.86222622
0.85880374
0.85805089
0.85317386
0.83579028
0.80126047
0.7577244
0.71736386
0.69025957
0.68245478
0.69106306
0.705991
0.71830121
0.72506582
0.7282187
0.73349043
0.74905895
0.77777614
0.81546856
0.85816396
0.89847422
0.92888114
0.94819792
0.95829183
0.96156659
0.96213738
0.96394858
0.96693611
0.96886278
0.96981284
0.9685266
0.9626743
0.95548108
0.94852787
0.94138471
0.93533366
0.92956237
0.92004556
0.9033894
0.87851373
0.845744
0.80859306
0.77519043
0.75181183
0.73984141
0.74002516
0.74828788
0.75844924
0.7684919
0.77863979
0.789262
0.80191675
0.81822014
0.83674196
0.85468961
0.8717259
0.88583131
0.89331193
0.89592206
0.89460587
0.89015973
0.88711572
0.88830372
0.89184918
0.89396938
0.89033771
0.87586703
0.84875294
0.81461524
0.78010665
0.74962474
0.72944037
0.71993031
0.71704585
0.71892789
0.72444716
0.73257233
0.74423901
0.76098477
0.78139505
0.80215766
0.8215219
0.83667007
0.84440747
0.84712269
0.84687584
0.84489758
0.844565
0.84728576
0.85110634
0.85435933
0.85691318
0.85855907
0.86030037
0.86600135
0.87586885
0.88524308
0.89247489
0.89516913
0.8927705
0.89072446
0.89380539
0.90080477
0.90581707
0.90105449
0.8794241
0.8403618
0.79363986
0.75119653
0.72055966
0.70625071
0.70447688
0.70738539
0.71138419
0.71616294
0.72234053
0.73139695
0.74369839
0.75637332
0.7665502
0.77585073
0.78602069
0.79702897
0.81160932
0.82854814
0.84394981
0.8570066
0.86767444
0.87540132
0.8812565
0.88694018
0.89149088
0.89281067
0.89134086
0.88628061
0.87564243
0.86235791
0.84721606
0.82888279
0.8082745
0.786016
0.76242798
0.74041861
0.72445259
0.71638586
0.71536032
0.72062805
0.72960259
0.73931717
0.75185926
0.76784006
0.78490858
0.80095586
0.81276526
0.81750877
0.81677919
0.81543892
0.81628692
0.81879136
0.82188259
0.82221969
0.81682666
0.81046003
0.80743822
0.80860638
0.81356045
0.81784957
0.81483858
0.80215041
0.78296476
0.76154567
0.74141181
0.72603294
0.71409078
0.70095528
0.6871473
0.67378804
0.66247194
0.65721214
0.65967494
0.66720105
0.6760448
0.68333744
0.68684381
0.68709816
0.68917885
0.69686064
0.71023336
0.73018613
0.7535368
0.77543459
0.79505908
0.81290904
0.82870209
0.84270812
0.85500345
0.86332433
0.86554272
0.86381443
0.86004801
0.85434477
0.85018303
0.84771697
0.84442326
0.83994655
0.83350613
0.82266314
0.80613288
0.78466146
0.75902165
0.73119176
0.70649315
0.68819831
0.67580852
0.6699574
0.66842315
0.66801446
0.66919779
0.67324974
0.68005721
0.68957807
0.70196204
0.71600061
0.73106926
0.75006248
0.7739967
0.79993561
0.82677809
0.85019292
0.86506176
0.8716253
0.87237244
0.86943076
0.86566501
0.86354043
0.86229184
0.85990476
0.85677128
0.85135656
0.83983931
0.82274416
0.79988129
0.77171147
0.74339151
0.72033482
0.70489032
0.69742062
0.6968121
0.69993501
0.70472621
0.71351076
0.72835428
0.74865889
0.77475094
0.80290386
0.82715485
0.84497346
0.85569356
0.85923047
0.85770576
0.85442165
0.85057264
0.84622766
0.84337937
0.84156474
0.8377133
0.83315284
0.82797378
0.82184994
0.81803684
0.81877608
0.822585
0.82657279
0.82728694
0.81987583
0.80148565
0.77558392
0.74704947
0.71987336
0.70034422
0.69004009
0.68617652
0.68660889
0.68910104
0.69171604
0.69548049
0.70336493
0.71640797
0.73368171
0.75472602
0.776377
0.79381402
0.80785641
0.81914855
0.82784084
0.83659545
0.84611098
0.8536104
0.85672272
0.85523441
0.84960411
0.84218334
0.83874579
0.84162114
0.8474529
0.85355534
0.85380652
0.8420213
0.81867776
0.78810804
0.75540669
0.72640726
0.70570166
0.69299742
0.68512619
0.68116011
0.68012858
0.68121669
0.68821953
0.70271937
0.72305461
0.74771682
0.77354929
0.79614279
0.81354382
0.82638179
0.83471345
0.83844944
0.84002025
0.84045634
0.83930433
0.84039401
0.84470684
0.84991458
0.85494548
0.85813064
0.85775045
0.85591803
0.85780062
0.86617752
0.88003604
0.89678157
0.90899766
0.90727153
0.88970263
0.85778868
0.81621929
0.77427155
0.73990052
0.71615639
0.70302638
0.69886021
0.7001606
0.70434823
0.71278614
0.72589427
0.74111565
0.75818707
0.77404896
0.78482175
0.79150728
0.79689158
0.80300717
0.81223025
0.82615891
0.84281775
0.85880824
0.87341557
0.88472545
0.88943502
0.88905924
0.88405602
0.87450228
0.86404008
0.8554052
0.84777109
0.83920094
0.82748088
0.80921858
0.78325794
0.75494103
0.73040488
0.71372229
0.71079144
0.72192547
0.74214803
0.76680029
0.79083563
0.80917472
0.82013238
0.8255586
0.8274434
0.82778075
0.8301509
0.83471392
0.83768096
0.83838447
0.834723
0.82471275
0.81146085
0.7992643
0.7907343
0.78844176
0.79437524
0.8070418
0.82347558
0.84331924
0.86448253
0.8829008
0.8992477
0.9127265
0.92152664
0.92708633
0.93032411
0.92953853
0.92299604
0.90998404
0.88900878
0.85999949
0.82832972
0.79975296
0.77806858
0.76927476
0.77404127
0.78807485
0.80780221
0.82934858
0.8490217
0.86659228
0.88427629
0.90208123
0.9177528
0.93023026
0.93662233
0.93359915
0.92470421
0.91359404
0.90254024
0.89522333
0.89296875
0.89382895
0.89675278
0.90264128
0.91123192
0.92160183
0.93470081
0.94812505
0.95618263
0.95775907
0.95072159999999994
0.93331655
0.90874276
0.88124396
0.85412364
0.83150693
0.81741998
0.81271243
0.81611718
0.82736357
0.84345953
0.85876301
0.87213571
0.88158913
0.88521385
0.88592946
0.88728892
0.89073919
0.89756866
0.90841632
0.92049289
0.93000602
0.93685455
0.94027856
0.93830102
0.93425679
0.92933349
0.92238032
0.91422097
0.90409638
0.88876268
0.86657599
0.83858719
0.80660001
0.77457906
0.75027713
0.73845759
0.73892264
0.75197325
0.77336783
0.79697675
0.82056793
0.84335276
0.86429047
0.88364888
0.90199602
0.91767872
0.92887687
0.93727274
0.94387958
0.94820776
0.95374886
0.96080801
0.96665773
0.97051369
0.97074868
0.96435092
0.95063067
0.93136515
0.9076659
0.88103568
0.85617648
0.83556712
0.81852917
0.80718806
0.79988482
0.79226843
0.78253428
0.76955447
0.75267984
0.73431316
0.71896875
0.70949065
0.70693931
0.71250458
0.72411549
0.73728664
0.75193566
0.7672959
0.78224012
0.79885172
0.81775481
0.83616369
0.85146749
0.86262173
0.86866846
0.87062447
0.87357064
0.87951138
0.88534726
0.89003119
0.88980731
0.88137904
0.86765598
0.85281973
0.8381659
0.82305228
0.80549937
0.78196836
0.75144109
0.71941657
0.69167839
0.67075601
0.65962034
0.6563786
0.65718561
0.66245556
0.67472481
0.69588399
0.72689852
0.76601493
0.80688441
0.84199206
0.86789092
0.88310922
0.88782448
0.88800755
0.88766308
0.88772362
0.88985216
0.89361993
0.89632989
0.89686967
0.89603113
0.89359795
0.88919954
0.88476846
0.88000177
0.8723626
0.8633754
0.85274083
0.83879542
0.82244157
0.80412776
0.78298642
0.75957579
0.73610362
0.71396742
0.69429976
0.67978019
0.67073113
0.66487287
0.66291253000000006
0.66447038
0.66886739
0.67866163
0.69548611
0.71763523
0.7423902
0.76658444
0.78550893
0.79588024
0.799534
0.7983026
0.79245068
0.78599393
0.78016223
0.77431481
0.77064974
0.77038476
0.77171616
0.77231919
0.76985557
0.76076274
0.74328229
0.72108761
0.69826905
0.67730958
0.66287518
0.65518612
0.6510781
0.64928814
0.6494098
0.65168695
0.65881102
0.67430064
0.69823278
0.72723034
0.75790163
0.78499422
0.80289723
0.81274032
0.8163914
0.81511718
0.81246316
0.81072418
0.80986162
0.81064231
0.81452461
0.8199241
0.82303435
0.82223951
0.8155727
0.8017171
0.78614793
0.77292817
0.76239882
0.75412537
0.7452938
0.73237457
0.71592147
0.70065494
0.69038976
0.68631411
0.68934507
0.69769363
0.70853443
0.72481795
0.74838289
0.77735203
0.80882609
0.83744142
0.85714527
0.86671965
0.87033773
0.87253746
0.87630456
0.88423675
0.89490042
0.90439366
0.91353592
0.92159469
0.92531317
0.92280279
0.91169379
0.8901624
0.86149506
0.8336672
0.81338359
0.80379599
0.80620155
0.81650565
0.82743891
0.83748068
0.84600848
0.85271935
0.86012442
0.86954347
0.87929118
0.88761634
0.89364755
0.89493139
0.88872849
0.87579412
0.8566591
0.83149662
0.80613543
0.78497051
0.77038164
0.76588953
0.77251792
0.78805354
0.81047759
0.83809405
0.86710501
0.89317698
0.91484909
0.92961922
0.9342858
0.93181052
0.92452587
0.91387907
0.90390045
0.89727249
0.89357666
0.8922224
0.89304455
0.89399117
0.89298515
0.89177758
0.89131289
0.89053202
0.89180912
0.89331756
0.89026386
0.87825461
0.85312034
0.81487495
0.77120521
0.73317933
0.70892501
0.70074801
0.70549594
0.7173218
0.73366266
0.75785883
0.79049247
0.82503134
0.85074672
0.85811946
0.84889992
0.83937092
0.84718442
0.87454132
0.90401315
0.91119765
0.88588192
0.84789266
0.83913079
0.88643477
0.97120733
