0.74054532
0.79094872
0.83355301
0.84297698
0.82857401
0.81529781
0.81992402
0.83761396
0.85049043
0.84948578
0.83970175
0.83109887
0.8310894
0.83781072
0.84271513
0.84144128
0.83491291
0.82470681
0.8129575
0.80006187
0.7843977
0.76744557
0.75224601
0.73969355
0.73047293
0.72394081
0.71663998
0.70878158
0.70150854
0.69639442
0.69912193
0.71218307
0.73173306
0.75428044
0.77747043
0.80253037
0.83740232
0.88569578
0.9386515
0.98046636
0.99400076
0.97184061
0.92675987
0.88185062
0.85497187
0.85248225
0.8654224
0.87713296
0.87941647
0.87360853
0.86414605
0.8563117
0.85024256
0.84120738
0.82875103
0.81582059
0.80373906
0.79311029
0.78149137
0.76434694
0.74276426
0.72205477
0.70616878
0.6977998
0.69563372
0.69422636
0.69130959
0.68780997
0.68468204
0.68524301
0.69220615
0.70525945
0.72560305
0.75344258
0.78468736
0.81509165
0.84040506
0.85617082
0.86300988
0.86478128
0.86370188
0.86189116
0.85975737
0.85443168
0.84525839
0.83398404
0.82099494
0.80773766
0.79591068
0.78393497
0.77115944
0.75898837
0.74747338
0.73777786
0.73154897
0.72654448
0.71997237
0.71100508
0.69887701
0.68583913
0.67632366
0.67060046
0.6663937
0.66184845
0.65488948
0.64731696
0.64405269
0.64543418
0.64825248
0.64976962
0.64908521
0.65285004
0.67315511
0.71520313
0.77324267
0.83266469
0.87429724
0.88738001
0.87628596
0.85299848
0.83085159
0.81906312
0.81682212
0.81883235
0.82224543
0.82453515
0.82472103
0.82435843
0.82235189
0.81727724
0.81118947
0.80477366
0.79792109
0.79223336
0.78642985
0.77838422
0.76909183
0.75816743
0.74495585
0.73195722
0.72022532
0.71008127
0.70374174
0.69990459
0.6951182
0.6891048
0.68193558
0.67573638
0.6767634
0.68687769
0.70292841
0.72173738
0.73802837
0.74908691
0.75946548
0.77285155
0.78933225
0.80800821
0.82329791
0.82964579
0.82868614
0.82324889
0.815513
0.80931819
0.80392891
0.79615913
0.78744414
0.77859638
0.76934259
0.76243521
0.75722246
0.75056242
0.7435404
0.73647795
0.72885879
0.72385556
0.72162063
0.71899344
0.71577505
0.71048609
0.70137421
0.69217216
0.68532852
0.68047757
0.67930482
0.68042871
0.68078918
0.68230426
0.68614341
0.69164839
0.70097158
0.7132134
0.72510407
0.73733066
0.74928771
0.75866239
0.7665193
0.77212099
0.77309514
0.77111001
0.76691921
0.75958706
0.751531
0.74376194
0.73526249
0.72841085
0.72417141
0.72061851
0.71834242
0.71629905
0.71119556
0.70379692
0.69544596
0.68657479
0.68078197
0.67948753
0.67959211
0.6791926
0.67622566
0.66904223
0.66145145
0.65738423
0.65668411
0.6588369
0.66138918
0.66128367
0.66103346
0.66429888
0.67154167
0.68313417
0.6975329
0.71241121
0.7306341
0.7556783
0.78629197
0.81869602
0.84573489
0.85970278
0.86046457
0.85335595
0.84371806
0.83655698
0.83260458
0.82788973
0.82078302
0.8121188
0.80248289
0.7942353
0.78855266
0.78290149
0.77608906
0.76821687
0.75834931
0.74798073
0.73959451
0.73340076
0.73046004
0.73141742
0.73345044
0.73421048
0.73235854
0.72590084
0.71616755
0.70670669
0.69892389
0.69427388
0.6933343
0.69335955
0.69307824
0.69313945
0.69326633
0.69555635
0.70339818
0.71730617
0.73761914
0.76391758
0.79167065
0.81635442
0.83510549
0.84468445
0.84534075
0.8408357
0.83345293
0.82553324
0.81953457
0.81455758
0.80985614
0.80643337
0.80313905
0.79907395
0.79497906
0.78960467
0.78265618
0.77637319
0.77100573
0.76653558
0.76407376
0.76210591
0.75926478
0.75662559
0.75379695
0.75078961
0.74974922
0.75062356
0.75291928
0.75760005
0.76289275
0.76661462
0.76914153
0.76968576
0.7686594
0.76970606
0.77416092
0.78212144
0.79439895
0.80786858
0.8183702
0.82495234
0.82636324
0.82293959
0.81831061
0.81296439
0.80522915
0.79555408
0.78360833
0.77079232
0.76249415
0.76022924
0.7609255
0.76174848
0.75827421
0.74885173
0.7393018
0.73428892
0.73423385
0.73845838
0.74177041
0.73928163
0.73348851
0.7276727
0.72344417
0.72289831
0.72307729
0.71919404
0.71220071
0.70387512
0.69603346
0.69333316
0.6959983
0.70067165
0.70718588
0.71401711
0.71952804
0.727142
0.73828363
0.75190287
0.76973704
0.79062189
0.8112934
0.83220062
0.85137488
0.86440616
0.87073186
0.86888742
0.85768841
0.8424648
0.82763791
0.81448639
0.80596576
0.80081184
0.79469592
0.7882408
0.78177977
0.77437067
0.76906356
0.76659098
0.76477103
0.76486725
0.76636823
0.76629994
0.76530303
0.76304977
0.75786921
0.75229969
0.74746816
0.74161547
0.73580537
0.7301443
0.72388975
0.72092343
0.72367933
0.73079999
0.74243381
0.75669684
0.77065302
0.7864062
0.80525154
0.82492168
0.84403485
0.85907379
0.86586356
0.8663302
0.86407742
0.86097481
0.85985666
0.86020645
0.85804
0.85291422
0.84557398
0.83585507
0.82641282
0.81844983
0.80986618
0.80103955
0.79269242
0.78414425
0.77744055
0.77361063
0.77005316
0.76549907
0.75876511
0.74796356
0.73536794
0.72443949
0.71615795
0.71191947
0.71109875
0.7099851
0.70774087
0.70546592
0.70405927
0.7072659
0.71782351
0.73418891
0.75479928
0.7771222
0.79675483
0.81246004
0.82449096
0.83171077
0.83511424
0.83616664
0.83428441
0.83094871
0.82835129
0.82575255
0.82285032
0.81927741
0.81232336
0.80168662
0.7895073
0.77651468
0.76449157
0.7552477
0.74697305
0.73816722
0.72877309
0.71751549
0.705234
0.69477766
0.6867372
0.68157866
0.67976456
0.67873705
0.6769111
0.67550248
0.67551475
0.67997848
0.69298152
0.71426626
0.74131646
0.7707166
0.79616923
0.81365418
0.82390989
0.82870006
0.83203196
0.83867707
0.84834286
0.85808487
0.86526597
0.86618713
0.86023078
0.85102399
0.84051329
0.82948048
0.81914263
0.80832447
0.79693164
0.7882135
0.78277796
0.77896892
0.77585374
0.77069614
0.76271202
0.75595667
0.75274498
0.75262582
0.75444642
0.75342456
0.74549766
0.73227925
0.71622298
0.70029152
0.68912575
0.68329642
0.68127789
0.68351635
0.68801157
0.69219906
0.69652264
0.69977151
0.70141554
0.70573449
0.71615248
0.73493677
0.76425654
0.79900885
0.82898384
0.84674057
0.84757464
0.83359015
0.81589469
0.80359227
0.79902659
0.80069295
0.80143365
0.79487574
0.78361053
0.77211867
0.76289686
0.75822659
0.75478992
0.74741724
0.73728198
0.72652256
0.71632373
0.70975328
0.70587074
0.70136567
0.69743917
0.69456881
0.69160223
0.69008408
0.6888519
0.68514456
0.68102752
0.67760074
0.67418596
0.67382071
0.67735388
0.68404047
0.69727884
0.7171645
0.73961755
0.76250725
0.78143115
0.79178677
0.79548705
0.79459083
0.78954799
0.78352078
0.77709344
0.76885424
0.7612949
0.75533055
0.74900477
0.74266912
0.7351042
0.72422717
0.71333884
0.70567255
0.70145246000000006
0.70218153
0.70605675
0.70811912
0.70775383
0.70568193
0.70240433
0.70188273
0.70563112
0.71042881
0.71421341
0.71462342
0.70966501
0.70287663
0.69779483
0.69414954
0.69204508
0.6899109
0.68579477
0.68316555
0.68565836
0.69300513
0.70469665
0.71882764
0.73397691
0.75451413
0.78454431
0.82173548
0.85959072
0.88802506
0.89836759
0.89215692
0.87772742
0.86266533
0.85202066
0.84462759
0.83460582
0.82036575
0.80465418
0.79029093
0.78062311
0.77573684
0.7709986
0.76374681
0.75358359
0.73984898
0.72439396
0.70943586
0.69502537
0.68290741
0.67494519
0.66974045
0.6659678
0.66239774
0.65689612
0.65075932
0.6470882
0.64645295
0.64925709
0.65514112
0.66177382
0.66991696
0.68228221
0.69915288
0.72053522
0.74501821
0.76790339
0.7864679
0.80052051
0.80910371
0.81288746
0.81330759
0.80937304
0.80144238
0.79187926
0.78126397
0.77081958
0.76263639
0.75571565
0.74905462
0.74310285
0.73605321
0.72682864
0.7169669
0.706913
0.69811409
0.6935602
0.6927873
0.69381437
0.69558639
0.69541378
0.69222917
0.68846051
0.68518121
0.68304599
0.68351064
0.68528843
0.68755485
0.69265952
0.70192101
0.71679345
0.73939756
0.76739517
0.7965964
0.82453195
0.84772288
0.86455203
0.87704045
0.88517079
0.88784882
0.88565188
0.87763756
0.86429692
0.85048977
0.8394078
0.83203957
0.82922559
0.82724228
0.82101102
0.80995618
0.79436852
0.77613022
0.7606731
0.74997482
0.7426146
0.7381423
0.73378637
0.72702151
0.71993784
0.7135073
0.70724157
0.70267645
0.69880722
0.69386837
0.69016368
0.68827164
0.68719404
0.68893044
0.69338581
0.70003859
0.71254173
0.731261
0.75286155
0.77546151
0.79442686
0.80558294
0.81143788
0.81415572
0.81405403
0.81342324
0.81090978
0.80364362
0.79400485
0.78358907
0.77235018
0.76335638
0.75679939
0.75068573
0.74751713
0.7479175
0.74966931
0.75365659
0.75825115
0.76015601
0.76093809
0.7609245
0.7582431
0.75435678
0.74911759
0.74121907
0.73391948
0.72897345
0.72508951
0.72299934
0.7210244
0.71609842
0.71038877
0.70594672
0.70328132
0.70565446
0.71337166
0.72373973
0.73727641
0.75333931
0.76955841
0.78649458
0.80255348
0.81352855
0.8186132
0.81730684
0.80927125
0.79890973
0.78980577
0.78209408
0.7767978
0.77247578
0.76556696
0.75682405
0.74773296
0.73831227
0.7309521
0.72622227
0.72166608
0.71745156
0.71363599
0.70860503
0.7035013
0.69900171
0.69375315
0.68896126
0.6855107
0.68205649
0.67932849
0.6777838
0.67620727
0.6761668
0.67899878
0.68332735
0.68943101
0.69720825
0.70490775
0.71376721
0.72499384
0.73682398
0.74849906
0.75890204000000006
0.76569187
0.77005726
0.77429929
0.77821259
0.78198112
0.78475354
0.78339972
0.77774066
0.76973337
0.75997675
0.75031647
0.74226797
0.73441171
0.72688209
0.72137883
0.71820376
0.71885926
0.72448031
0.73232761
0.73956373
0.74435553
0.7443348
0.74023639
0.73491587
0.72882876
0.72223807
0.71570398
0.7083481
0.7017746
0.69955749
0.70243617
0.71019586
0.72229815
0.73627976
0.7519417
0.77105165
0.79201972
0.8114576
0.82555945
0.82954261
0.82319004
0.81186843
0.80050223
0.7927364
0.78995015
0.78836713
0.78418089
0.77732848
0.76826432
0.75906994
0.75314641
0.74999842
0.74765798000000006
0.74556074
0.74165783
0.73524922
0.72872968
0.72258986
0.71669979
0.7122554
0.70804661
0.7030425
0.69901599
0.69602244
0.69357403
0.69271672
0.69197828
0.68991761
0.68830865
0.6875823
0.68820611
0.69294445
0.70170167
0.71319228
0.72788592
0.74313877
0.7552437
0.76361058
0.76702722
0.76564226
0.76362126
0.76268954
0.76216176
0.7624204
0.76121918
0.75642763
0.75046468
0.74466448
0.73903232
0.7354002
0.73260744
0.72835239
0.72439609
0.72130129
0.71842655
0.71779074
0.71884817
0.71960178
0.72146414
0.72399204
0.72516263
0.72576278
0.72490142
0.72116725
0.71729686
0.71425126
0.71083176
0.7084015
0.70642031
0.70378087
0.70356292
0.70611167
0.70838596
0.71003659
0.70995387
0.70830035
0.71130075
0.72215648
0.73799446
0.75542974
0.76806822
0.77087973
0.7672376
0.76084583
0.75178922
0.74041218
0.72421428
0.70172189
0.67966337
0.6650666
0.65988269
0.66340352
0.66858241
0.66663911
0.6574343
0.64531289
0.63526978
0.6336808
0.64085942
0.65115559
0.66126686
0.6685682
0.67131246
0.67272405
0.67487846
0.67662375
0.67856237
0.67984287
0.67837203
0.67625021
0.67542577
0.67570884
0.6787171
0.68373017
0.68760631
0.69099908
0.69549715
0.70210027
0.71398639
0.73103847
0.74799224
0.76038661
0.76470524
0.75957338
0.75009323
0.74231849
0.73811784
0.73765303
0.73804526
0.7346488
0.72803668
0.72153638
0.71649745
0.71429654
0.71371924
0.71048454
0.70414127
0.69691111
0.68994323
0.68552848
0.68413516
0.68248939
0.67941883
0.67550074
0.67045401
0.66626213
0.6647439
0.66452919
0.66533224
0.6673341
0.66908825
0.6717392
0.67776631
0.68784743
0.70401844
0.72782418
0.75716641
0.78999996
0.82384934
0.85376725
0.87676122
0.89194695
0.89823206
0.89762985
0.89400807
0.8888947
0.88397257
0.8808477
0.87824981
0.87575727
0.87411527
0.87151508
0.86676976
0.86047208
0.85181201
0.84174582
0.83330116
0.82657023
0.82079403
0.81565964
0.80833077
0.79743579
0.78512008
0.77256355
0.76136523
0.7537782
0.74834583
0.74334293
0.73965768
0.73765751
0.73935841
0.7479607
0.76186345
0.77734733
0.79198583
0.80324756
0.81287828
0.82716768
0.84905403
0.8774147
0.90814953
0.93258521
0.94443858
0.94489713
0.93816851
0.93076994
0.92956241
0.93452493
0.94110043
0.94531542
0.94216938
0.92964621
0.91175046
0.89171
0.87162416
0.85460569
0.83994311
0.82575155
0.81329507
0.80195684
0.79021874
0.77915094
0.76787974
0.7555476
0.74508683
0.73709733
0.73008929
0.72447369
0.71833575
0.71013329
0.70325802
0.69947541
0.6988385
0.70365831
0.71325187
0.72626264
0.74531535
0.769621
0.79504087
0.81918156
0.83722907
0.84548213
0.84732249
0.84568379
0.84177108
0.8386289
0.83523746
0.82898203
0.82245394
0.81727915
0.81333251
0.81301077
0.81486089
0.81478947
0.81318438
0.80945236
0.80208611
0.79436466
0.78800534
0.7827397
0.78163741
0.78420224
0.78598902
0.78586492
0.78198967
0.77309018
0.76411088
0.75826072
0.754522
0.75314435
0.75154622
0.74661145
0.74196929
0.74078634
0.74312811
0.75031298
0.75984742
0.76752514
0.77485838
0.78335112
0.79237043
0.80304999
0.81322777
0.81866781
0.82012029
0.81862985
0.81395403
0.80899299
0.80476136
0.80005215
0.79713861
0.7966281
0.79566346
0.7936653
0.7893512
0.78111423
0.77283584
0.76815479
0.76674174
0.76816916
0.76886656
0.76322648
0.75125787
0.73575589
0.71934952
0.70691076
0.70025735
0.69634055
0.69363159
0.690996
0.68726964
0.68572493
0.68940399
0.69770913
0.71041801
0.72546287
0.73893503
0.75106581
0.76355179
0.77732987
0.79328489
0.80885636
0.82006331
0.82644618
0.82859761
0.82659134
0.82133755
0.81307185
0.80380361
0.79968358
0.80387625
0.81148513
0.81325638
0.8020151
0.78174298
0.76876169
0.77538634
0.79471717
0.80381794
0.78232253
0.73594047
0.70060818
0.71172579
0.76514328
