0.75978338
0.77164581
0.80729168
0.83964152
0.8508383
0.84100391
0.82393128
0.81480386
0.82238824
0.84337418
0.86661542
0.88223126
0.88846016
0.89031698
0.89398784
0.90466135
0.92250015
0.94350825
0.96256095
0.97834765
0.99145221
1.0018841
1.0093125
1.0127922
1.0106951
1.0010661
0.98637542
0.97018776
0.95528958
0.94295137
0.93439469
0.92936253
0.925404
0.92320929
0.92276544
0.92307095
0.92219359
0.9208247
0.91841643
0.91373208
0.90786572
0.90262827
0.89854932
0.89344486
0.88839156
0.88290477
0.87672525
0.87135086
0.87080304
0.87724071
0.88943078
0.90663706
0.92632443
0.94542713
0.96166737
0.97792412
0.99625882
1.0166961
1.038606
1.0600524
1.0771058
1.0848964
1.0847606
1.0787693
1.0692438
1.0581035
1.0482845
1.0395683
1.0292258
1.0170223
1.0034763
0.9888827
0.97222588
0.95630712
0.94183683
0.92835745
0.91639882
0.90799942
0.90364615
0.90130534
0.90128674
0.90233795000000006
0.90233897
0.89929085
0.89491124
0.89018864
0.88514554
0.88138317
0.8804572
0.882595
0.88583795
0.89208058
0.90103331
0.91121795
0.92144826
0.9323409
0.94342279
0.95312125
0.96341509
0.97563612
0.98958642
1.003116
1.0166832
1.0283035
1.0348864
1.0357886
1.0325247
1.0263166
1.0166499
1.006807
0.99787484
0.98933443
0.98015259
0.9716642
0.96367781
0.95448845
0.94469384
0.93494602
0.92517096
0.91407539
0.90417006
0.89607615
0.88906766
0.88290642
0.87851783
0.8758943
0.87387439
0.87463275
0.87916066
0.88683172
0.89563597
0.90566819
0.91580135
0.92470111
0.93410944
0.94666188
0.96346196
0.98209363
1.0025615
1.0218076
1.036122
1.0437556
1.0466075
1.0462037
1.0422978
1.0367822
1.029857
1.0202214
1.0058903
0.98947164
0.97268866
0.95625014
0.94168825
0.93035666
0.92138573
0.91148075
0.9012613
0.89055472
0.87908235
0.86704437
0.85705895
0.85003887
0.84499091
0.84264012
0.84334053
0.8464478
0.84994016
0.85532062
0.86229958
0.86949043
0.87638264
0.88391194
0.89227102
0.90051115
0.91116971
0.925406
0.94255332
0.96033287
0.97846441
0.9947984
1.0064534
1.0136729
1.0179129
1.019786
1.0173597
1.0124812
1.0046232
0.99277643
0.97743616
0.96212609
0.94917146
0.93837364
0.93087942
0.92592227
0.92118999
0.91375484
0.90504337
0.89589982
0.88646771
0.87783848
0.87125186
0.86632611
0.86080224
0.85619033
0.85311717
0.85162144
0.8516113
0.8548307
0.86137194
0.86981552
0.88071745
0.89407859
0.90837199
0.9201889
0.92969021
0.93620479
0.93970514
0.9427308
0.94957329
0.96213351
0.97816827
0.99623128
1.0122523
1.0216081
1.0212679
1.0138657
1.0022529
0.98819042
0.97422283
0.96170978
0.94993286
0.93610935
0.92249096
0.91021584
0.8996636
0.89087989
0.88462377
0.87951693
0.87260649
0.86427592
0.85533784
0.84630484
0.8367308
0.82887155
0.82310254
0.81870627
0.8164544
0.81797474
0.8234807
0.83066297
0.83995924
0.85016768
0.85981406
0.86854436
0.87915607
0.89312457
0.90960519
0.92862866
0.94870607
0.96677075
0.97867492
0.98545238
0.98760555
0.9855286
0.98078755
0.97580356
0.97074008
0.96312467
0.95374419
0.94284712
0.93054686
0.91703927
0.9056268
0.89748117
0.89135686
0.88674497
0.88304752
0.87888432
0.87164887
0.86379493
0.85665952
0.85077569
0.84644437
0.84494903
0.84569434
0.84642253
0.84793255
0.85132133
0.85731113
0.86549588
0.87780411
0.89340753
0.90932495
0.92358476
0.93562238
0.944987
0.95065221
0.95627102
0.96399717
0.97418766
0.98576486
0.99870268
1.0105665
1.0174125
1.018772
1.0156763
1.0095759
1.000987
0.99401147
0.98966649
0.98634362
0.98216245
0.97653792
0.96851785
0.9568067
0.94459348
0.93458664
0.92797731
0.92399072
0.92308803
0.92340455
0.92200186
0.91867427
0.91490025
0.91211854
0.90992398
0.910964
0.91502236
0.92027049
0.92520928
0.93056182
0.93653203
0.94236879
0.9501293
0.96077968
0.97354761
0.98591656
0.9981695
1.0088288
1.0156009
1.0183538
1.0184783
1.0166066
1.0114546
1.0055864
0.99964473
0.9929757
0.98466379
0.97629444
0.96784737
0.95768063
0.94657389
0.93530703
0.92382605
0.91071717
0.89862352
0.88831142
0.87918061
0.87108163
0.86493056
0.86030599
0.8552148
0.85126982
0.84934508
0.84935904
0.85038463
0.8538712
0.85947836
0.86565413
0.87294024
0.88240563
0.89412041
0.90596257
0.91960979
0.93463588
0.94987133
0.96490865
0.98111151
0.99787822
1.0121368
1.0231541
1.029679
1.0305192
1.0250422
1.0174688
1.0105902
1.0050443
1.0013036
0.99934841
0.99733936
0.99185201
0.98460765
0.97700288
0.96986629
0.96328951
0.95868158
0.95487385
0.94870152
0.9396526
0.92828251
0.91535401
0.90080219
0.8882596
0.87909981
0.87284993
0.86915177
0.8686884
0.87102548
0.87424896
0.87966242
0.88737783
0.89618963
0.90409501
0.91197379
0.91986454
0.92756345
0.93763355
0.95284642
0.9736798
0.99649191
1.0202022
1.0408543
1.0543678
1.0592458
1.0583247
1.054393
1.0483792
1.0429532
1.0385417
1.0334437
1.0247857
1.0141638
1.0025174
0.99021129
0.97889928
0.97037655
0.96424029
0.95737585
0.95031996
0.9425561
0.93332214
0.92233657
0.91198245
0.90314977
0.89497192
0.88852818
0.88477041
0.88382023
0.88446335
0.88906483
0.89790562
0.90966369
0.92326601
0.93851491
0.95401797
0.96715656
0.97932589
0.99144692
1.0036508
1.015185
1.0273644
1.0388677
1.046464
1.0492326
1.0475196
1.0417948
1.0313643
1.020628
1.011574
1.0043539
0.99851112
0.99478438
0.99205897
0.98761075
0.98212603
0.97623826
0.96985338
0.96172863
0.95371935
0.94569467
0.9363151
0.92587241
0.91600686
0.90758185
0.89958769
0.89418262
0.89149687
0.89026079
0.88900188
0.88879357
0.88987829
0.89169121
0.89630849
0.90548482
0.91937211
0.93575276
0.95517666
0.97564618
0.9940105
1.0086346
1.0200276
1.0282347
1.0320646
1.0339434
1.0347709
1.0338522
1.029493
1.0230463
1.0146336
1.0036836
0.9921515
0.98242109
0.97521843
0.96818729
0.96234189
0.95632026
0.94826809
0.93774546
0.92716745
0.91800993
0.90978807
0.90383174
0.89993027
0.89638135
0.89062201
0.88405152
0.87736985
0.87079143
0.86591922
0.86470412
0.86728911
0.87139668
0.87808927
0.88714773
0.8978538
0.90980184
0.92478332
0.94248996
0.96025454
0.97708566
0.99143248
1.0010155
1.0029555000000001
0.99954196
0.99222624
0.98202786
0.97097927
0.96194075
0.95550586
0.94954607
0.94486889
0.94125058
0.93791241
0.93397025
0.93156098
0.93085963
0.93005242
0.92852831
0.92587908
0.92117192
0.91243945
0.90268567
0.89356559
0.88575373
0.87967547
0.87672608
0.87650962
0.87705901
0.87923853
0.88357062
0.88955125
0.89530737
0.90161495
0.90764817
0.91206416
0.9157978
0.92116475
0.92931469
0.93874861
0.95040667
0.96261723
0.97252843
0.97790369
0.97989769
0.97903466
0.97469514
0.96850659
0.96165657
0.95413003
0.944438
0.93514278
0.92708813
0.91985799
0.91343393
0.90861527
0.90461012
0.89892601
0.89270465
0.88658513
0.88062435
0.8743304
0.86963199
0.86642512
0.86288395
0.85878288
0.85447619
0.84982494
0.84327976
0.83763531
0.83396086
0.83235938
0.83310829
0.83791976
0.84692458
0.85847957
0.8733387
0.89120223
0.91027852
0.92734757
0.94227018
0.95357104
0.95948049
0.96080349
0.96005283
0.95874282
0.95588226
0.95346331
0.95125846
0.94795183
0.94255628
0.93712849
0.93259659
0.92822621
0.92497901
0.92314385
0.92178004
0.91860535
0.91530571
0.91205196
0.90792911
0.90258262
0.89683456
0.89056762
0.88256081
0.8751226
0.8696908
0.86628718
0.86353192
0.86201779
0.86102217
0.85950704
0.85934697
0.86351734
0.87375048
0.8884463
0.90805486
0.929662
0.94912392
0.96363529
0.97370453
0.97984982
0.98162271
0.9812177
0.97956258
0.97601134
0.96873814
0.95973021
0.94988368
0.93932673
0.92957104
0.92255337
0.91825568
0.91393746
0.91022542
0.90638087
0.90127339
0.89436618
0.88796319
0.88298342
0.87853905
0.87539537
0.87374361
0.87266258
0.86999529
0.86757491
0.8659766
0.86498261
0.86501453
0.86728719
0.87135597
0.87488363
0.87866972
0.88301256
0.88791594
0.89331131
0.9017297
0.91357554
0.92712157
0.94172772
0.95656899
0.96987108
0.97838179
0.9838421
0.98662164
0.98648243
0.9835943
0.97979778
0.97529953
0.96856448
0.96091552
0.95326726
0.94562397
0.93684183
0.92875228
0.92133639
0.91340149
0.90516536
0.89779771
0.89140014
0.88416189
0.87755202
0.87160811
0.86570583
0.85947888
0.85483955
0.85219738
0.85023028
0.84931707
0.84957342
0.8505568
0.85113538
0.85417084
0.86093508
0.87121007
0.88469244
0.9012488
0.91887622
0.93383939
0.94609305
0.95518078
0.96029284
0.96047323
0.95776735
0.95265928
0.94443527
0.93456449
0.92506146
0.91681445
0.90822988
0.90136993
0.89576771
0.88979159
0.88233564
0.87452855
0.86657961
0.85740703
0.84861177
0.84105371
0.83442129
0.82729946
0.82133602000000006
0.81684468
0.81336835
0.81181696
0.81359487
0.81845464
0.82372882
0.82962511
0.83518074
0.83945515
0.84263174
0.8477888
0.8566473
0.86866052
0.88411344
0.90190519
0.91951131
0.93338379
0.94450657
0.95293446
0.95817537
0.96062311
0.96161047
0.96090826
0.95653267
0.95000655
0.94218372
0.93311225
0.92209367
0.91087645
0.8994069
0.88636881
0.87254683
0.85961954
0.84862937
0.83859461
0.83182906
0.82808341
0.82560023
0.8227223
0.81981888
0.8167841
0.81286953
0.81032037
0.81082596
0.81455261
0.81975862
0.82678439
0.83415136
0.83974041
0.84364037
0.84766883
0.85311645
0.85930021
0.86833698
0.8799639
0.892377
0.9036197
0.91429441
0.92391962
0.93082543
0.93576901
0.93927223
0.94076287
0.93822861
0.93355397
0.92716618
0.91881868
0.90935571
0.900946
0.8941604
0.88722854
0.88103873
0.87540464
0.86944628
0.8620994
0.85529412
0.84949824
0.84363435
0.83793507
0.83302553
0.82911437
0.82527136
0.82463867
0.82828021
0.83537916
0.8442404
0.85409799
0.86336838
0.87037158
0.87725663
0.8860502
0.89698444
0.90756841
0.91658984
0.92105099
0.91854115
0.91086599
0.90309792
0.90001233
0.90309498
0.9144345
0.9314783
0.94893945
0.96160993
0.96828974
0.96844522
0.96166406
0.95044364
0.93712993
0.92278439
0.90676756
0.89202715
0.87965952
0.86930584
0.86064508
0.85389157
0.84768919
0.83920724
0.82923531
0.81847585
0.80738488
0.79609509
0.78712561
0.78117728
0.77734496
0.77620943
0.77860147
0.78438713
0.79147895
0.80163533
0.81465095
0.82935707
0.84493265
0.86220385
0.88041563
0.89694349
0.91178825
0.92454445
0.93420798
0.93919655
0.9417078
0.94244353
0.94085288
0.93761994
0.93408121
0.93020113
0.9239039
0.91695734
0.90977188
0.90195162
0.89306007
0.88505686
0.87843941
0.87215972
0.86721248
0.8644283
0.86356828
0.86276342
0.86337215
0.86499705
0.86631482
0.86696417
0.86825045
0.87090339
0.87442851
0.88096631
0.89113921
0.90376742
0.91628708
0.92814121
0.93777533
0.9435514
0.94682826
0.95006039
0.95475163
0.95969127
0.96639131
0.97355267
0.97889866
0.98124991
0.98200174
0.98178581
0.97969057
0.97695265
0.97357011
0.96834441
0.95939378
0.94864822
0.93702911
0.92456797
0.91231082
0.90149633
0.89167845
0.88034509
0.86858565
0.8565883
0.84421422
0.83155667
0.82073566
0.81207593
0.80408168
0.79714572
0.7916856
0.78771372
0.78446345
0.78481898
0.78965115
0.79805271
0.80890624
0.8212012
0.83227389
0.83830449
0.83982386
0.83793579
0.83431737
0.8309249
0.83192039
0.83845
0.84856421
0.86067178
0.87277664
0.88230026
0.88593775
0.88602087
0.88394474
0.88047977
0.87635417
0.8732469
0.87071304
0.86645277
0.86110846
0.85534157
0.84935701
0.84245367
0.83661101
0.83171063
0.82617113
0.81958261
0.81266644
0.80566463
0.7976079
0.79096372
0.78690234
0.78551969
0.78636884
0.79040854
0.79670597
0.80263688
0.8076726
0.81180351
0.81522877
0.81787905
0.82340523
0.8333461
0.84699241
0.86287302
0.87959872
0.89453917
0.9043233
0.90998593
0.91271294
0.91317284
0.91110152
0.90812553
0.90384615
0.89670567
0.88751538
0.87814129
0.86974657
0.86119365
0.85440725
0.84886641
0.84310259
0.83642988
0.83042373
0.82569239
0.8211223
0.81743261
0.81436421
0.81080751
0.80527394
0.79986855
0.79577782
0.79314456
0.79272009
0.79520599
0.79976682
0.80387573
0.80852929
0.81398594
0.82013903
0.82692353
0.83591215
0.84670934
0.85696461
0.866229
0.87411149
0.87990736
0.88220996
0.88358462
0.88477654
0.88502651
0.88386808
0.88186266
0.87851482
0.87213289
0.86485458
0.8582157
0.85261463
0.8471708
0.84294088
0.83909765
0.83373161
0.82719425
0.82084069
0.81531819
0.80908037
0.80367241
0.79847163
0.79216473
0.78447432
0.77768441
0.77347363
0.77196192
0.77486502
0.78226868
0.79244615
0.80235231
0.81207693
0.82096196
0.82821433
0.83505415
0.84382084
0.85572341
0.86965937
0.88700401
0.906646
0.92571171
0.94089785
0.95139072
0.95595374
0.95328658
0.94556739
0.93562306
0.9252832
0.9141605
0.90445495
0.89594449
0.88721325
0.87792199
0.86948797
0.86239133
0.85529095
0.84938851
0.84466087
0.84020648
0.83485944
0.83030201
0.82693766
0.82377736
0.82101953
0.81902666
0.81748557
0.81481551
0.81351463
0.81456132
0.81776645
0.82258317
0.82937725
0.83704164
0.84335357
0.84932143
0.85608539
0.86413017
0.87263468
0.88302695
0.89424726
0.90366534
0.91024824
0.91443204
0.91634476
0.91482509
0.9125533
0.91039021
0.90766913
0.90309927
0.89759217
0.89089695
0.88186514
0.87208218
0.86329592
0.85611912
0.85000548
0.84480325
0.83873752
0.8307712
0.8226586
0.81727525
0.81597494
0.81732892
0.81911674
0.81770537
0.81175386
0.80449027
0.80244846
0.8092655
0.82270398
0.83639361
0.84270784
0.83922794
0.83224063
0.83548578
0.85768266
0.89519267
0.93228629
0.9497685
0.93822889
0.90837946
0.88944851
0.90872195
0.97010853
1.0432382
1.0734196
