0.82975655
0.8536682
0.90066112
0.93543362
0.94085576
0.92296155
0.90026669
0.88799166
0.88828352
0.89061307
0.88162209
0.85882907
0.83044508
0.80846397
0.80139154
0.80978266
0.82637086
0.84118179
0.85015421
0.85397461
0.85479064
0.85487249
0.85502937
0.85396067
0.84955403
0.84301404
0.83608989
0.82901267
0.82211668
0.8157967
0.8100444
0.80543499
0.80514248
0.81015545
0.81843629
0.82953668
0.84152738
0.85202517
0.86047819
0.86952858
0.88069352
0.8928635
0.90668642
0.9204146
0.93126973
0.93835222
0.94379465
0.94914639
0.95369668
0.95919057
0.96483058
0.96839267
0.96920053
0.96893672
0.96862264
0.96684334
0.96531995
0.96287561
0.95683689
0.94646264
0.93320713
0.91825423
0.9013328
0.88552077
0.87121627
0.85675935
0.8418567
0.82721732
0.8129339
0.7982835
0.78614673
0.77757038
0.77181217
0.76958492
0.77138812
0.77631011
0.78263825
0.79182827
0.8038868
0.81744906
0.83331205
0.85144022
0.86992209
0.88605484
0.89995479
0.91083512
0.91743123
0.92225269
0.92737173
0.93297817
0.93810933
0.94337233
0.947537
0.94818512
0.94716173
0.94602056
0.94499547
0.94382258
0.94339381
0.9425302
0.93831148
0.93179507
0.92344089
0.91284646
0.90004731
0.88644423
0.87228218
0.85653969
0.84206609
0.83043937
0.82166317
0.81557307
0.81219087
0.81010634
0.80666017
0.80388195
0.80303781
0.80474122
0.81045721
0.82132981
0.83612803
0.85132832
0.86670336
0.88046839
0.89033691
0.89665919
0.90101386000000006
0.90415595
0.90555649
0.90758422
0.90975752
0.90922057
0.90485498
0.89611315
0.88233472
0.86346888
0.84388966
0.82644743
0.81166852
0.80116574
0.79497337
0.79101223
0.78659848
0.78241611
0.77822231
0.77259701
0.76685551
0.76177772
0.75694434
0.75187571
0.74850366
0.74741753
0.74752834
0.75026447
0.75600278
0.76395179
0.77360795
0.7862154
0.80145292
0.81693441
0.83304876
0.84872653
0.86200502
0.87221645
0.88096292
0.88895918
0.8950033
0.90131102
0.90788742
0.91309978
0.91626712
0.9184515
0.91993382
0.91916596
0.91868446
0.91859546
0.91697151
0.91251817
0.90508987
0.89399681
0.87779275
0.85984104
0.84218398
0.82519065
0.80990197
0.79725247
0.78652387
0.77567727
0.7665646
0.75992128
0.75525517
0.7536956
0.75633065
0.76283467
0.77189446
0.78504589
0.80203197
0.82073366
0.84077398
0.86130122
0.88052759
0.89690431
0.91219305
0.92695588
0.94010706
0.9528312
0.96529401
0.97633913
0.9849223
0.99264256
0.99945322
1.0031418
1.0044216
1.0032744
0.99918933
0.99284424
0.98758279
0.98473452
0.98224599
0.97992078
0.9756037
0.96644123
0.95159754
0.93368539
0.91487329
0.89500789
0.87647582
0.85940351
0.84271344
0.82676539
0.81390042
0.80530983
0.79939145
0.79717917
0.79727238
0.79761417
0.79872974
0.80319763
0.8126713
0.82631316
0.8451553
0.86668683
0.88656771
0.90299088
0.91610511
0.9262346
0.93320998
0.94021943
0.94759004
0.95324837
0.95699408
0.95906562
0.95910556
0.95656882
0.95445638
0.95340757
0.95148863
0.94842185
0.94336855
0.93468775
0.92133846
0.90628573
0.89137211
0.87648004
0.86324637
0.85186933
0.84093467
0.82912605
0.81814994
0.80891781
0.80086338
0.79582751
0.79425999
0.79514136
0.7977036
0.80327906
0.81211711
0.82271486
0.83631064
0.8522775
0.86841842
0.88314024
0.89659052
0.90797936
0.91508667
0.91984456
0.92268059
0.92290851
0.92102373
0.91894947
0.91727768
0.91430699
0.91247743
0.91170798
0.91022182
0.9074116
0.90373348
0.89858508
0.88997301
0.88021123
0.86977425
0.85763084
0.84422143
0.83069433
0.81725411
0.80317035
0.79138647
0.78295087
0.77687394
0.77320795
0.77176152
0.77134607
0.77067123
0.77219433
0.7773034
0.78580265
0.7989488
0.81678243
0.83748337
0.85861901
0.88036514
0.90146385
0.91928981
0.93408055
0.94580393
0.95386587
0.95832838
0.96201374
0.96594998
0.96858331
0.97068616
0.97172292
0.97023175
0.96581807
0.96104722
0.9570731
0.95231228
0.94749266
0.94120289
0.93074905
0.91491205
0.89583378
0.8756564
0.85495776
0.83741325
0.82399665
0.81318327
0.80344451
0.79459294
0.78592109
0.77570374
0.76677397
0.76059936
0.75751016
0.7586775
0.76552316
0.77770029
0.79289513
0.81201927
0.83395341
0.8563521
0.87860298
0.90037893
0.92002782
0.93491213
0.94621458
0.9540324
0.95796773
0.96035207
0.96346308
0.9674366
0.97040469
0.97295232
0.97383622
0.97095248
0.965731
0.95997526
0.95386859
0.94600696
0.93690807
0.92518021
0.90845507
0.88847875
0.86790055
0.84857883
0.83140628
0.81835888
0.80860904
0.79891958
0.7891829
0.77953627
0.77005021
0.76155147
0.75673558
0.7563616
0.75864419
0.76441033
0.77317074
0.7836353
0.79565282
0.81080622
0.82903311
0.84776077
0.86747626
0.88665003
0.90290959
0.91579896
0.9269097
0.93685866
0.94398636
0.9504185
0.95583504
0.95884296
0.96005384
0.96149112
0.96367494
0.96455412
0.96501706
0.96338334
0.95689267
0.94549766
0.93105151
0.91490741
0.89703067
0.88024801
0.86508535
0.85039618
0.83699972
0.82619096
0.81796676
0.81093441
0.80615841
0.80315298
0.80048729
0.7995355
0.8018844
0.80763285
0.81550591
0.82586621
0.83733847
0.84763086
0.85804077
0.86983826
0.88285393
0.89593711
0.90926587
0.921153
0.92882318
0.9338545
0.93768811
0.94052825
0.94217602
0.94376448
0.94460729
0.94252381
0.93979605
0.93769977
0.93574841
0.93298761
0.92930599
0.92306817
0.91152935
0.89728864
0.88250869
0.86824304
0.85547655
0.8452193
0.83628812
0.82541709
0.81410394
0.80317931
0.79317224
0.78589776
0.78344822
0.78579349
0.79055694
0.79850546
0.80876802
0.81971705
0.83182095
0.84616892
0.86239204
0.87840867
0.89491393
0.9104693
0.9224082
0.9308462
0.93687719
0.94095212
0.94281285
0.94527774
0.94878643
0.95150032
0.95375005
0.95560617
0.95588997
0.95299517
0.94855633
0.94263965
0.93362489
0.9227784
0.91092527
0.89761961
0.88221194
0.86677581
0.8521022
0.83733259
0.82463644
0.81518652
0.80849124000000006
0.80364758
0.8014752
0.80152678
0.80196855
0.80469764
0.81075123
0.81992277
0.83213226
0.84828618
0.86756797
0.88717175
0.90796222
0.92907849
0.94832009
0.96444278
0.97764525
0.98747445
0.99229871
0.99533966
0.9976788
0.9984565
0.9974782
0.99531198
0.9918039
0.98610641
0.98208432
0.981079
0.98135065
0.98095096
0.97764426
0.96872944
0.95244577
0.93310968
0.91453717
0.89837238
0.88598952
0.87677487
0.86787069
0.85616477
0.84340669
0.83146471
0.82130616
0.81532326
0.81429379
0.81665008
0.82010098
0.82557213
0.83328368
0.84237581
0.85442925
0.86954944
0.88581989
0.90097808
0.9152787
0.92791021
0.9369672
0.9442659
0.95071148
0.95581507
0.95915785
0.96213887
0.96430801
0.96317271
0.96024803
0.95617879
0.95082853
0.94490671
0.94050858
0.93727856
0.93176121
0.92403466
0.91307257
0.89800117
0.88046044
0.86436106
0.85190296
0.84163368
0.83434249
0.82789208
0.81933716
0.80848902
0.79792828
0.79013456
0.78580252
0.78783873
0.79574132
0.80671655
0.81947954
0.83381421
0.84910035
0.86404057
0.88047391
0.89788734
0.91391516
0.92812937
0.94036379
0.94963079
0.95462613
0.95761482
0.95928267
0.95881353
0.95786014
0.95764728
0.95776774
0.95690577
0.95635345
0.95546139
0.95175762
0.94568867
0.93739495
0.92608822
0.91120473
0.89515017
0.87913298
0.86260028
0.84775074
0.83545581
0.82479413
0.81453934
0.8054313
0.79721265
0.78846826
0.78152043
0.77785002
0.77768492
0.78130698
0.78981225
0.80236059
0.81593486
0.83108299
0.84692793
0.86179475
0.87543182
0.88900146
0.90242564
0.91355143
0.92420912
0.93396279
0.94111484
0.94558281
0.94853571
0.95017705
0.94924006
0.94850866
0.94852743
0.94803612
0.94701927
0.94557611
0.94221838
0.93421189
0.92289604
0.90867138
0.89140087
0.87348038
0.85754591
0.84434109
0.83264826
0.82346427
0.81596783
0.80829822
0.80152595
0.79725277
0.79600489
0.79724928
0.80212711
0.80964279
0.81720901
0.82523497
0.83426039
0.84421728
0.85504731
0.86831535
0.88329694
0.89708952
0.90952818
0.9197312
0.92639196
0.92940748
0.93104597
0.93217781
0.93158013
0.93104362
0.93066995
0.92928663
0.92660919
0.92429041
0.92255267
0.91927029
0.91574939
0.91128497
0.90393609
0.89312706
0.88041826
0.86675479
0.85123225
0.83687913
0.82438732
0.81271057
0.80159783
0.79166044
0.78237392
0.77172011
0.76142343
0.75160417
0.74137209
0.73175861
0.72473581
0.72146197
0.72201604
0.72932664
0.74362634
0.76262316
0.78504073
0.8092112
0.83253595
0.85252205
0.87072825
0.88758297
0.90201414
0.91502631
0.92697763
0.9368317
0.94329475
0.94840927
0.95272461
0.95481394
0.95561361
0.95510224
0.95190088
0.94476542
0.93555428
0.92496756
0.91190777
0.89810109
0.88427988
0.86998148
0.85507737
0.84175164
0.83084319
0.82105382
0.81362404
0.80830125
0.80369305
0.79922252
0.79646705
0.79634798
0.79815056
0.80405999
0.81422275
0.82706338
0.84154581
0.85780463
0.87510905
0.89114114
0.90765231
0.92418258
0.93864171
0.95007873
0.958647
0.96389879999999994
0.96460954
0.96426189
0.96433495
0.96416703
0.96380238
0.96300836
0.96000847
0.95220777
0.94170257
0.92950142
0.91533194
0.90065955
0.88669943
0.87303911
0.85828126
0.84446516
0.8321607
0.8203168
0.80983962
0.80136194
0.79447732
0.78865158
0.7863247
0.78844237
0.79390554
0.80332237
0.81612334
0.83040868
0.84450121
0.85943581
0.87505514
0.88949492
0.90365066
0.91721295
0.92879548
0.93780213
0.94607628
0.95406349
0.96004541
0.96542974
0.96991541
0.97200043
0.97131481
0.96977551
0.96804894
0.96446963
0.96067684
0.95599006
0.94826129
0.93666309
0.92257006
0.90694739
0.88920162
0.87278784
0.85878607
0.84641585
0.8355024
0.82658002
0.81913237
0.81140471
0.80543595
0.80168186
0.79928192
0.79869835
0.8007241
0.80500919
0.81025443
0.81849951
0.82998452
0.84329964
0.8585351
0.8752843
0.89159145
0.90479395
0.91570927
0.92398988
0.92837592
0.93059076
0.93225145
0.93355335
0.93387494
0.93504148
0.9366838
0.93637301
0.93439115
0.9304479
0.92324579
0.91185744
0.89850288
0.88443933
0.86948605
0.85632306
0.84608875
0.83774444
0.82956749
0.82154536
0.81275485
0.80154774
0.79049105
0.78162175
0.77573384
0.77338105
0.77564065
0.78160715
0.78845467
0.79708143
0.80743499
0.81882263
0.83155475
0.84654573
0.86274972
0.87671486
0.88880085
0.89797909
0.90316788
0.90571606
0.90815196
0.91120156
0.91289106
0.91420993
0.91411932
0.91105696
0.90635916
0.90245729
0.89981124
0.89603435
0.89112377
0.88329192
0.87074978
0.85581267
0.84237727
0.8325101
0.82506802
0.81975404
0.81361366
0.80313092
0.78942437
0.77576295
0.76472831
0.75690114
0.75339926
0.75239911
0.75069737
0.74927078
0.75037709
0.75570384
0.76583133
0.7817399
0.80133037
0.82047874
0.83889687
0.85665605
0.87353466
0.88960256
0.90612991
0.92217115
0.93477662
0.94481202
0.95262625
0.95806039
0.96186902
0.96627888
0.9716357
0.97573881
0.97969346
0.9827549
0.98301368
0.97973972
0.97396962
0.96599541
0.95444891
0.94209312
0.92981488
0.91715705
0.90452964
0.89300369
0.88224048
0.8701781
0.85826173
0.84660316
0.8345889
0.82339937
0.81481899
0.809255
0.80546462
0.80473006
0.80646981
0.80901049
0.81303282
0.81970047
0.82911857
0.84029233
0.85422807
0.86925951
0.8817177
0.8905581
0.8954172
0.89615712
0.89353126
0.89160631
0.89209598
0.89355103
0.89601643
0.89817962
0.89777762
0.89358253
0.88813233
0.88264357
0.87580202
0.86843419
0.85969674
0.84772286
0.83203769
0.81576528
0.80126347
0.78848806
0.77944363
0.77349758
0.76812355
0.76161772
0.75492346
0.7487712
0.74263144
0.73938972
0.74004419
0.74410484
0.75178069
0.76434226
0.78167963
0.80138663
0.82421402
0.84843159
0.87103169
0.89073454
0.90787252
0.92244763
0.93347555
0.94365989
0.95321871
0.96024857
0.96412675
0.96516805
0.96352901
0.95926973
0.9564362
0.95640411
0.95713648
0.95659053
0.95218297
0.94115605
0.92229968
0.90014139
0.87889983
0.86051094
0.84683837
0.83733356
0.82911995
0.81920321
0.80868049
0.79863411
0.78911792
0.78204467
0.77809556
0.77648211
0.77655246
0.78033124
0.78862002
0.80003891
0.8148802
0.83155471
0.84723643
0.86027115
0.87205198
0.88337472
0.89329693
0.9036086
0.91381678
0.92175748
0.92625595
0.92856636
0.92937275
0.92786948
0.92696252
0.92716625
0.92697108
0.9253171
0.92223957
0.91672169
0.90634558
0.89347043
0.8791156
0.86344784
0.8478495
0.83429943
0.82304257
0.81215573
0.80281572
0.794288
0.78479213
0.77453311
0.76501457
0.75738662
0.75208904
0.75237648
0.75896032
0.7699357
0.78398999
0.79927877
0.81316881
0.82342533
0.83184052
0.83934403
0.84551825
0.85169862
0.85819212
0.86374839
0.86689468
0.86934605
0.87154146
0.8722725
0.87287915
0.87382404
0.87423145
0.8732598
0.87280301
0.87301345
0.87167385
0.86916026
0.86480017
0.85709205
0.84556038
0.83278305
0.82025605
0.80715807
0.79522342
0.7844674
0.77364782
0.76239979
0.75265066
0.74521945
0.73863074
0.73430346
0.73204337
0.73099842
0.73204966
0.73791793
0.74990808
0.76626716
0.78754421
0.81138803
0.8343608
0.85526845
0.87491763
0.89353953
0.90964395
0.9247584
0.93818195
0.94816065
0.95528493
0.96122188
0.9662652
0.96871752
0.96974627
0.96885475
0.96505532
0.96053153
0.95807912
0.95822174
0.95847875
0.95764346
0.95247668
0.93967659
0.92081562
0.89979397
0.88009118
0.86339947
0.85182566
0.84407017
0.83657577
0.82888798
0.82151796
0.81486999
0.80927917
0.80673155
0.80727181
0.81000033
0.81531866
0.82247493
0.83069081
0.84072406
0.85385658
0.86932062
0.88423877
0.8966543
0.90399087
0.90612538
0.90732746
0.91278579
0.92342416
0.93439468
0.93979517
0.93457544
0.92092082
0.90974283
0.91222509
0.92943608
0.9486999
0.95245883
0.9285452
0.88385013
0.84554803
0.84309816
0.88430305
0.94178984
