1.0112488
0.99424404
1.0251258
1.0817896
1.1343565
1.1614644
1.1585945
1.1363723
1.112098
1.100474
1.1077595
1.1291467
1.1529792
1.1675196
1.168544
1.1587909
1.145533
1.1352277
1.132671
1.1372377
1.1446023
1.1482097
1.1457047
1.1375174
1.1266298
1.1155507
1.1071522
1.1025355
1.1009282
1.0997713
1.0974565
1.0940209
1.0903144
1.0870959
1.0853125
1.0867879
1.0923971
1.1013814
1.1120802
1.1243258
1.1362542
1.1459029
1.151172
1.1542193
1.1562479
1.1584914
1.1597081
1.1621714
1.1653912
1.1683354
1.1682898
1.1663354
1.1631961
1.1595472
1.1546602
1.1498068
1.1459249
1.142769
1.1388277
1.133879
1.1290698
1.1245786
1.1198117
1.1141813
1.1091599
1.1046952
1.1003741
1.0951074
1.0913272999999999
1.0899161
1.091558
1.0946162
1.1011311
1.1105605
1.1217322
1.1314837
1.1399924
1.146887
1.1518758
1.1537368
1.1538269
1.1537185
1.1539862
1.1536834
1.1527018
1.15197
1.1513698
1.1502668
1.1484426
1.1480298
1.1493946
1.1518177
1.1529158
1.1531766
1.1513356
1.1466089
1.137205
1.1266461
1.1169623
1.1099218
1.1047864
1.1029125
1.1035851
1.105046
1.1042813
1.1012685
1.0971401
1.0931676
1.0899721
1.0891271
1.0926063
1.1003227
1.1105404
1.1211054
1.1319674
1.1419715
1.1499894
1.1544387
1.1573368
1.159136
1.1601522
1.1585812
1.1567856
1.1549558
1.1530849
1.1494456
1.1456399
1.142304
1.1395929
1.136173
1.1328034
1.1301053
1.1277159
1.1240941
1.1189786
1.11347
1.1078753
1.1020275
1.0960361
1.0920483
1.0903542
1.0902275
1.0895271
1.0890331
1.087976
1.0859649
1.0813431
1.0772199
1.0749518
1.0754987
1.0774512
1.0817678
1.0878076
1.0942222
1.0984786
1.1008221
1.1022419
1.1033622
1.1037307
1.1037757
1.1045939
1.1057544
1.1059055
1.1039934
1.1014873
1.0986798
1.0955145
1.0909311
1.0869259
1.0835847
1.0808404
1.0767737
1.0738198
1.0723923
1.0725622
1.0723442
1.0725967
1.0730093
1.0729277
1.0707385
1.0675642
1.0650632
1.0642589
1.0648431
1.0671088
1.071855
1.0782969
1.0846686
1.0894266
1.0935945
1.0971972
1.1000735
1.1011542
1.1024423
1.104014
1.1055905
1.1048027
1.1035414
1.1018973
1.1000415
1.0965958
1.0934003
1.0912085
1.0900759
1.0884137
1.0866387
1.0852173
1.0839537
1.0817926
1.0790296
1.0771599
1.0765041
1.0763712
1.0758555
1.0759024
1.0759904
1.0753016
1.0724668
1.0696394
1.0676729
1.067427
1.0676806
1.0709298
1.0771985
1.0858411
1.0941294
1.1023426
1.1099571
1.1162983
1.1196739
1.1208887
1.1210632
1.1205966
1.1187168
1.115658
1.1126638
1.1098249
1.1064697
1.1020748
1.0982682
1.0951733
1.0922928
1.0880399
1.0839205
1.0798268
1.0757451
1.0700223
1.0652858
1.0621869
1.0609656
1.0597656
1.0593978
1.0594751
1.0592248
1.0569245
1.053577
1.0508489
1.0499804
1.0510746
1.0548659
1.0624072
1.0728148
1.0837708
1.0927872
1.0997387
1.1037819
1.1044894
1.1013071
1.0972953
1.0938278
1.0917028
1.0890908
1.0877069
1.0869602
1.0862297
1.0836465
1.0810105
1.0793898
1.0792288
1.0790902
1.079074
1.0789383
1.0777298
1.0739842
1.06817
1.0624941
1.0582531
1.0555697
1.0538474
1.0537182
1.0539899
1.0532006
1.0497183
1.0458952
1.0431137
1.0427044
1.0435258
1.0475622
1.0539817
1.0613206
1.0665336
1.0701839
1.0726192
1.0742651
1.0743317
1.0739782
1.0740966
1.0745185
1.073914
1.07223
1.0707263
1.0696833
1.0685458
1.0666312
1.065086
1.0634912
1.0610329
1.0562858
1.0512905
1.0467575
1.0433895
1.0398478
1.0384156
1.0389248
1.0406156
1.0408927
1.0403504
1.0390803
1.0373435
1.0346521
1.0329141
1.0339934
1.0384329
1.0448731
1.0522197
1.0599665
1.0665844
1.0703504
1.0704936
1.0691674
1.0676241
1.0665792
1.0652914
1.0654245
1.0664676
1.0676474
1.0665278
1.065211
1.0642063
1.0638995
1.0626785
1.0615432
1.0601967
1.0579004
1.0529959
1.0466041
1.0405083
1.035926
1.0327071
1.0311052
1.0316735
1.0333739
1.0343603
1.0332759
1.0314581
1.0294818
1.0277541
1.0256668
1.0253522
1.0268898
1.0299184
1.0320243
1.0349946
1.0388942
1.0437594
1.0478777
1.0524584
1.0575684
1.0626424
1.0656945
1.0670628
1.0675347
1.0674987
1.0665222
1.0653169
1.065482
1.0670707
1.0688375
1.0692385
1.0687868
1.0669347
1.0632869
1.0571864
1.0514973
1.0474176
1.0455289
1.04374
1.0432701
1.0430916
1.0422619
1.0389265
1.0351687999999999
1.032881
1.0336812
1.0373646
1.0448469
1.0560818
1.0694786
1.0821118
1.0924196
1.100624
1.1066331
1.1101243
1.1110343
1.1113076
1.1112957
1.110676
1.1080989
1.1053634
1.1027368
1.1004098
1.0965839
1.0933815
1.0908173
1.0886452
1.0849468
1.0810055
1.0773312
1.0741135
1.0702373
1.0666481
1.0642447
1.0630022
1.0616879
1.0600745
1.0589826
1.0581845
1.0567799
1.0540909
1.0516816
1.0499412
1.0489342
1.0478225
1.0487058
1.0517766
1.0567191
1.0609472
1.0656766
1.0702603
1.0741666
1.0755791
1.0761621
1.076834
1.0780003
1.0784056
1.0786458
1.0791678
1.0796253
1.0787918
1.0768888
1.0754412
1.0748239
1.0743491
1.0730383
1.0717291
1.0698351
1.0666346
1.0610392
1.0555623
1.0512657
1.0488857
1.0467268
1.046456
1.0473285
1.0483678
1.047322
1.0455962
1.044268
1.0442784
1.0451409
1.0478924
1.0529051
1.0592052
1.0645628
1.067988
1.0699678
1.0705879
1.0697499
1.0677614
1.0668736
1.0676586
1.0697547
1.0714555
1.0737579
1.0759511
1.077377
1.0758605
1.0735936
1.0711055
1.0688498
1.0655321
1.0626614
1.0605431
1.0588868
1.0560923
1.0528046
1.0499064
1.0476306
1.0451507
1.0426067
1.0409996
1.0401121
1.0389057
1.0364271
1.0337337
1.0304747
1.0257623
1.0177882
1.0079621
0.99650183
0.98413111
0.97032603
0.95898281
0.95203843
0.95067501
0.95338292
0.96060576
0.97099539
0.98242778
0.99170178
0.99848924
1.0034477
1.0071724
1.009479
1.0111379
1.0135674
1.0166111
1.0190266
1.0196457
1.0196397
1.0191575
1.0182031
1.0159904
1.0146838
1.0145085
1.0152271
1.0144827
1.0138874
1.0133104
1.0127828
1.0110347
1.0100435
1.0109011
1.0140631
1.0182743
1.0239335
1.0311727
1.0391575
1.0459911
1.0510369
1.0550821
1.0582355
1.0601486
1.0606442
1.0615241
1.0630503
1.0647347
1.0649207
1.0648223
1.0642962
1.0633882
1.0606167
1.0585041
1.0576511
1.0581481
1.0580016
1.0577941
1.057181
1.055721
1.0522558
1.0482113
1.0453416
1.044425
1.0445601
1.0451199
1.0460068
1.0461382
1.0443278
1.0404197
1.0370624
1.0358566
1.0375039
1.0407977
1.0463869
1.0526007
1.0576154
1.0584286
1.057075
1.054743
1.0529556
1.0513466
1.0517955
1.0542899
1.0576345
1.0590699
1.0583023
1.0558451
1.0521873
1.0472083
1.0419213
1.0380829
1.0358443
1.0341211
1.0316771
1.0293718
1.0269724
1.0241604
1.0200123
1.016715
1.0146683
1.0138148
1.0118861
1.01036
1.0088697
1.0072314
1.0041295
1.0016919
1.0013001
1.0036753
1.0076165
1.0133662
1.0207656
1.0287155
1.0352369
1.0399146
1.0439997
1.0479841
1.0515573
1.0541747
1.057055
1.0597925
1.0615525
1.0608373
1.0596627
1.0586489
1.0582538
1.0566752
1.0557135
1.0548597
1.0533617
1.0490705
1.0434234
1.0375225
1.0324025
1.0277522
1.0249415
1.0247753
1.0265886
1.0281594
1.028245
1.027092
1.0246828
1.021158
1.0174497
1.016834
1.0209175
1.0299625
1.0421053
1.0574226
1.0737319
1.0886852
1.0986041
1.1047313
1.1074499
1.1077084
1.1050471
1.101895
1.0993958
1.0978412
1.0958717
1.094096
1.0931638
1.0928701
1.091782
1.0894203
1.086402
1.0825046
1.0771953
1.070539
1.0650113
1.0616608
1.0605982
1.0602693
1.0614684
1.0629914
1.0636583
1.0610269
1.0574457
1.0540621
1.0521204
1.0509427
1.0522151
1.0559827
1.0613026
1.0657143
1.06904
1.0716675
1.0736874
1.0743881
1.0741549
1.0743396
1.0750358
1.0754136
1.0747058
1.0743521
1.0744763
1.0747699
1.0739269
1.0736687
1.0738465
1.0740737
1.0720418
1.0696699
1.0670975
1.0645152
1.0605903
1.0571269
1.0548687
1.0539039
1.0527369
1.0518155
1.0515852
1.051773
1.0511935
1.0499578
1.0494225
1.0499062
1.050851
1.0515925
1.0534149
1.0561071
1.0589967
1.0605592
1.0625269
1.0650666
1.0681969
1.0698833
1.0720408
1.0745531
1.0771559
1.0779908
1.0784624
1.0791446
1.0801603
1.0801497
1.0796942
1.0792823
1.0785473
1.076119
1.0719397
1.0673082
1.0626946
1.0579471
1.0529877
1.0496049
1.047924
1.0473427
1.0461984
1.0458389
1.046122
1.0470226
1.04691
1.0482461
1.0515592
1.0569998
1.0627164
1.069499
1.0769195
1.0839964
1.0885242
1.0907279
1.0913779
1.090912
1.0889688
1.0863318
1.0847031
1.0843591
1.0844023
1.0837024
1.0831123
1.0821817
1.0802477
1.0760246
1.0715902
1.0674344
1.0638163
1.058857
1.0545229
1.0507051
1.0471793
1.0422318
1.0374368
1.03354
1.030789
1.0278895
1.025395
1.0237651
1.0226949
1.0210125
1.0189265
1.0179836
1.0187629
1.0209497
1.0239766
1.028885
1.0350543
1.0413333
1.0458783
1.050009
1.0537514
1.0572314
1.0588322
1.0608277
1.0634026
1.0664105
1.067963
1.0691968
1.0703624
1.0714066
1.0710995
1.0703951
1.0702229
1.0705275
1.0699383
1.0680186
1.0654216
1.0620616
1.0576225
1.0523572
1.0486619
1.0472387
1.0476338
1.0477544
1.0480179
1.0474175
1.045594
1.041445
1.0382439
1.0372702
1.0386197
1.0394107
1.0383114
1.0328478
1.0212694
1.0028859
0.98140336
0.96215383
0.94978743
0.94630399
0.95193132
0.96493543
0.98084557000000006
0.99451294
1.0025598
1.0058148
1.005923
1.0051321
1.0045794
1.0067728
1.0110011
1.0153508
1.0161735
1.0143805
1.0103454
1.0054399
1.0000216
0.99696833
0.99719242
0.99996125
1.0023458
1.0030936
1.0012549
0.9958979
0.98603072
0.97258071
0.95798315
0.94370861
0.93019944
0.91747964
0.90695483
0.89828906
0.89058317
0.88226924
0.87489195
0.86872926
0.86410881
0.85963759
0.85735681
0.85719466
0.85866977
0.85972755
0.86109355
0.86283601
0.86480023
0.86569103
0.8661705
0.86691675
0.86786002
0.86795328
0.86733174
0.86737996
0.86865762
0.87107173
0.8745322
0.88075682
0.88977413
0.90076936
0.91170019
0.92333751
0.93493684
0.94585731
0.9539081
0.96101835
0.96734912
0.97277327
0.97527513
0.97554482
0.97338652
0.96844894
0.95966265
0.94846344
0.93687936
0.92641268
0.91740511
0.91060157
0.90710145
0.90659973
0.90791786
0.90996974
0.91364271
0.91891517
0.92550188
0.93231533
0.94065445
0.95034713
0.96106919
0.97098272
0.98165702
0.99312539
1.0051949
1.0160485
1.0260902
1.034742
1.0410575
1.0432609
1.0419214
1.0384308
1.0341815
1.0299744
1.0273798
1.0282538
1.0325901
1.0387005
1.0441924
1.0481101
1.0485153
1.043819
1.0327264
1.0177405
1.0007033
0.98367315
0.96681219
0.95316454
0.94309384
0.93591959
0.92890429
0.92191642
0.91441179
0.90615403
0.89643432
0.88690316
0.87941611
0.87478787
0.87218024
0.87102865
0.87139014
0.87240427
0.87294254
0.87255904
0.87326077
0.87589032
0.88046932
0.88540798
0.89130335
0.89675654
0.90035346
0.89946829
0.89630959
0.89204298
0.88812506
0.88428243
0.88266528
0.8837389
0.88684819
0.88964548
0.89197306
0.89421526
0.89652336
0.89833848
0.90030593
0.90406023
0.90981457
0.91663435
0.92333877
0.93079116
0.93862775
0.94622757
0.9522061
0.95830029
0.9647552
0.971596
0.97686041
0.98215684
0.98734188
0.99221003
0.99519624
0.9976218
1.0001827
1.0031677
1.0054676
1.0075664
1.0099246
1.0122924
1.013533
1.0136656
1.0140552
1.0152897
1.0172009
1.0194404
1.0235618
1.0296873
1.0373671
1.0450775
1.0542448
1.0647353
1.0761343
1.0859265
1.0952592
1.1035496
1.110218
1.1133484
1.1141758
1.113479
1.1118076
1.1083892
1.1041411
1.099804
1.0950698
1.0883668
1.0791205
1.0681698
1.0559303
1.0426966
1.0292153
1.0182567
1.0108365
1.0067388
1.0040453
1.0034019
1.0040834
1.0059849
1.0080957
1.0139699
1.0252582
1.042532
1.0632072
1.0860889
1.1081744
1.1261763
1.1367046
1.1401993
1.1388722
1.1351028
1.1300733
1.1250064
1.1208505
1.1165465
1.1101224
1.1003669
1.0891645
1.0779898
1.0682454
1.0601096
1.0558362
1.0549418
1.0560765
1.0559279
1.055481
1.0544174
1.0528799
1.0498154
1.047147
1.0455965
1.0451615
1.04441
1.0438792
1.0441605
1.0451276
1.0456164
1.0453975
1.04514
1.0445194
1.0426996
1.0392246
1.035572
1.0321602
1.0290896
1.0256661
1.0238389
1.0236708
1.0246903
1.0242381
1.0234733
1.0217498
1.0187882
1.0134298
1.0080282
1.0039391
1.0015365
0.99909722
0.99623316
0.99233217
0.98659051
0.97834704
0.96911472
0.96172025
0.95732975
0.95500455
0.95251749
0.94891837
0.94277514
0.93429069
0.92518687
0.92121231
0.92564119
0.9385779
0.95435171
0.96759617
0.9703385
0.95707767
0.92700058
0.88684696
0.84658272
0.81693441
0.80564247
0.81651098
0.84650628000000006
0.88700715
0.92681273
0.95688863
0.97211438
0.97191642
0.9602945
0.94457167
0.93237266
0.92729385
0.92830599
0.93065154
0.92947272
0.92072098
0.90485748
0.88678436
0.8757032
0.87752741
0.8922113
0.91213604
0.92676618
0.92583982
0.90638267
0.87593163
0.8519391
0.85220893
0.88481831
0.94071306
0.99428066
1.0101747
