0.79018691
0.79977849
0.83759231
0.87963555
0.90386723
0.90253618
0.88227322
0.85651264
0.83786593
0.83126702
0.83301318
0.83436852
0.83077206
0.8230301
0.81667773
0.81807713
0.83295369
0.86254639
0.90341675
0.94962351
0.99555445
1.0357139
1.0645564
1.0793528
1.0804773
1.0709817
1.0546128
1.0382845
1.0272677
1.023433
1.0241962
1.0264865
1.0264038
1.020437
1.0083794
0.99351211
0.97926149
0.96714297
0.95947812
0.95614648
0.95468387
0.95010482
0.94204866
0.92999746
0.91457457
0.8970582
0.88121619
0.86839803
0.85757993
0.84776346
0.83900194
0.8313421
0.82498264
0.82369229
0.83121557
0.84973134
0.87760412
0.91417938
0.9548807
0.9936109
1.0246846
1.0469386
1.0602111
1.0654522
1.0660371
1.0661631
1.067274
1.0671946
1.0651861
1.0598709
1.0502428
1.035018
1.0187142
1.0041953
0.99275728
0.98352854
0.97659092
0.96972644
0.96020782
0.9479548
0.93551581
0.92493094
0.91608781
0.90982209
0.90501985
0.89931024
0.88912199
0.87595898
0.86088528
0.84500719
0.8289
0.81504628
0.80451298
0.79797084
0.79787814
0.80785505
0.82954974
0.86099851
0.89992608
0.94136336
0.97921812
1.0069396
1.0245063
1.0322796
1.0314635
1.0232845
1.011443
0.99757518
0.98214339
0.96713609
0.9557681
0.94938886
0.94631577
0.94591629
0.94593971
0.94342393
0.93467493
0.92203308
0.90766917
0.89397288
0.88251414
0.87594745
0.87358727
0.87224375
0.8692709
0.86362859
0.8545222
0.84117809
0.82612084
0.81163016
0.79882904
0.78639738
0.77632687
0.76953287
0.76752494
0.77242827
0.78847708
0.81683847
0.85469068
0.89719548
0.93851846
0.97208772
0.99243213
1.0006763
1.000805
0.99759277
0.99291582
0.990572
0.9897166
0.9873373
0.98019058
0.969449
0.95665727
0.94335174
0.93195397
0.92469519
0.92090243
0.91707176
0.91200356
0.9049655
0.8960148
0.88465562
0.87488152
0.86852656
0.86560643
0.86414039
0.8633805
0.86072677
0.85316745
0.84011272
0.8239094
0.80753684
0.79345777
0.78616789
0.78886844
0.80273104
0.82560305
0.85744706
0.89532309
0.93484239
0.97095584
1.0016591
1.0245445
1.0377326
1.0422765
1.0416444
1.0384014
1.0327765
1.0265377
1.0199276
1.0120369
1.000287
0.98705727
0.9735863
0.96081827
0.94903366
0.94049464
0.93529387
0.93199955
0.93002085
0.92972869
0.93020435
0.92871013
0.92467191
0.91725769
0.90569552
0.88853999
0.86950428
0.85154702
0.8373256
0.82853073
0.82818016
0.8366271
0.85208266
0.87291659
0.89813638
0.92568626
0.95213154
0.97655477
0.9977326
1.0141613
1.0230533
1.026354
1.0246832
1.0185951
1.0086625
0.99804169
0.98796366
0.97807388
0.96870899
0.96087025
0.95419173
0.94679034
0.93951748
0.93297469
0.92732252
0.92107706
0.91663552
0.91445025
0.91419245
0.91493847
0.91781475
0.92209386
0.92570351
0.92737357
0.92669918
0.92245942
0.91268847
0.89859675
0.88204637
0.86523034
0.84913575
0.83797344
0.83327099
0.83455028
0.83963809
0.84770481
0.85642651
0.86330511
0.8682955
0.87331818
0.87961347
0.88660092
0.8952627
0.9048545
0.91325024
0.91652345
0.91556715
0.91043907
0.90154709
0.88945134
0.87731426
0.8664141
0.85644824
0.8477147
0.84115994
0.83625719
0.83071002
0.8247385
0.81851538
0.81223944
0.80492156
0.79974695
0.79759381
0.79766745
0.79760278
0.79688304
0.79382166
0.78694744
0.77738936
0.76841116
0.7622749
0.75883418
0.75883935
0.76174203
0.76652484
0.77153599
0.77989766
0.79348288
0.81280602
0.83621661
0.86238257
0.88736726
0.90648713
0.91783822
0.92289111
0.92396114
0.92257222
0.92211013
0.92403212
0.92755512
0.92904719
0.92887559
0.92649449
0.92187219
0.91532297
0.90988423
0.90669044
0.90492728
0.90388187
0.90352832
0.9029166
0.90008472
0.89595836
0.89147926
0.88686841
0.88004412
0.87210863
0.86237397
0.85004534
0.83488156
0.82016362
0.80871246
0.8023882
0.80299599
0.81170739
0.82695883
0.84451254
0.86205694
0.8776784
0.89038096
0.89898382
0.90714807
0.9167981
0.92834032
0.94037012
0.95290838
0.96393899
0.97066641
0.97245971
0.97115314
0.96829067
0.96392503
0.96013219
0.95775381
0.95631673
0.95321715
0.95007306
0.94698888
0.94359132
0.93891107
0.93420735
0.92901135
0.92184634
0.91268615
0.9031462
0.8941035
0.88485676
0.87676351
0.87036544
0.86527857
0.85927139
0.85421714
0.8507341
0.84919089
0.84968913
0.85481148
0.86568908
0.88214774
0.90437986
0.93242043
0.96372152
0.99284513
1.0162742
1.0307712
1.0344918
1.0262948
1.0118418
0.99597906
0.98226458
0.97175798
0.9658491
0.96271552
0.95923661
0.95444846
0.94989056
0.94681499
0.9447623
0.94484973
0.94678174
0.94936635
0.95017486
0.95149885
0.95411857
0.95762631
0.96003039
0.96083892
0.95817944
0.95041294
0.93869665
0.92641612
0.91574202
0.9059906
0.89723852
0.88872996
0.88043759
0.87312586
0.87337915
0.88607533
0.91273877
0.94982716
0.99146785
1.0278749
1.0494552
1.0522134
1.0387159
1.0149645
0.98733812
0.96342534
0.94686644
0.93694081
0.92872057
0.92089928
0.91168356
0.90078275
0.88921075
0.88109999
0.87820586
0.87946584
0.88326886
0.8882838
0.8922645
0.89246897
0.89028284
0.88769483
0.88609706
0.88402939
0.88301748
0.88172514
0.87809436
0.87040558
0.86076908
0.85068958
0.84070973
0.83171992
0.82469618
0.81883947
0.81186578
0.80466059
0.79864701
0.79526915
0.79401462
0.79789622
0.80689736
0.81953458
0.83360168
0.84987938
0.86788092
0.88619165
0.90452042
0.92364496
0.94292993
0.95990047
0.9747719
0.98767768
0.99841084
1.0050242
1.0098121
1.0132499
1.0150637
1.0143175
1.0125479
1.0096732
1.0044743
0.99687806
0.98820181
0.97894946
0.96821744
0.95756282
0.94789843
0.93908683
0.92879385
0.91879094
0.90976017
0.90273186
0.89901795
0.90239724
0.91433684
0.93356955
0.95787998
0.98483506
1.0108293
1.0316429
1.0470813
1.0581622
1.0660064
1.0694191
1.0706241
1.0692714
1.0641909
1.0542552
1.0421347
1.0297291
1.01792
1.0081378
1.0018975
0.99843778
0.99477121
0.9908732
0.98702463
0.98373017
0.9800396
0.97926345
0.98189272
0.98652408
0.99012534
0.99176758
0.98911538
0.97974934
0.96397606
0.94496606
0.92604032
0.90944986
0.89953012
0.89907367
0.90871945
0.92576675
0.95013017
0.97904648
1.0087658
1.0352818
1.0575905
1.0738382
1.0819921
1.0823722
1.0774294
1.0690653
1.0576999
1.0464128
1.03718
1.0304829
1.0240406
1.01958
1.0166877
1.0144486
1.0117532
1.0104118
1.0104934
1.0105712
1.0100045
1.0091441
1.0073043
1.0025651
0.99624515
0.98953523
0.98283903
0.97405479
0.96471938
0.95399646
0.94056317
0.92341389
0.90533259
0.88864753
0.87517083
0.86762317
0.86898629
0.87989327
0.89807183
0.92255973
0.95090491
0.97954067
1.0031951
1.0215448
1.0334378
1.0385426
1.0374725
1.034201
1.03079
1.0271888
1.0234831
1.0202867
1.0170413
1.0121988
1.0077699
1.0056607
1.0066905
1.0086379
1.0123605
1.0159484
1.0169461
1.013441
1.0075502
1.0008325
0.99400271
0.98830206
0.98481792
0.98212074
0.97638914
0.96659175
0.95242673
0.93460962
0.91345088
0.89395561
0.87891016
0.86919794
0.86379479
0.86329148
0.86701537
0.87423699
0.8863929
0.90600343
0.93302292
0.96327403
0.99294067
1.0167545
1.0300581
1.0293713
1.0194391
1.0055728
0.99270255
0.98332737
0.97967654
0.97973392
0.97938858
0.97660951
0.97240592
0.96816871
0.96407278
0.96231108
0.9633647
0.96615343
0.96757692
0.96934748
0.97174637
0.97439009
0.97579544
0.97614421
0.97353135
0.96541559
0.95171499
0.93514428
0.9186802
0.90429835
0.89577004
0.89518091
0.90255136
0.91498052
0.9324729
0.95294588
0.97368114
0.99180629
1.0072663
1.0191071
1.0260295
1.0286304
1.0289498
1.0279452
1.0247938
1.0210241
1.0174003
1.0138677
1.0084106
1.0032323
0.99853451
0.99371678
0.98754542
0.98130086
0.97467116
0.96638062
0.95660954
0.94703161
0.9383956
0.92978856
0.92253922
0.91684827
0.91155969
0.90324442
0.89286362
0.88036857
0.86638468
0.85221603
0.84192198
0.83724827
0.83729733
0.84055353
0.84562924
0.85055587
0.85355325
0.85709628
0.86410938
0.8764512
0.8925332
0.91241063
0.93260568
0.94894551
0.95843276
0.96278527
0.96398561
0.96359748
0.96376921
0.96631776
0.97050875
0.97338588
0.97485235
0.9751052
0.97448463
0.97182661
0.9697917
0.96846812
0.96665644
0.96245124
0.95666585
0.9491609
0.93937059999999994
0.92816683
0.917348
0.90701298
0.89499855
0.88110012
0.86496442
0.8465822
0.82544524
0.80579224
0.79027745
0.78009728
0.77462393
0.77448214
0.77864601
0.78581222
0.79676701
0.81373624
0.83712143
0.86390607
0.89140245
0.91526193
0.93115633
0.93527232
0.93114998
0.92290491
0.91468626
0.90890289
0.90824741
0.9114257
0.91473722
0.91593526
0.91537902
0.91379728
0.91109175
0.90968403
0.91061387
0.91311275
0.91374537
0.9134178
0.9118814
0.90919123
0.90552339
0.90359289
0.90378324
0.90420166
0.90296864
0.89911501
0.89137878
0.87856297
0.86353932
0.8501868
0.84204225
0.83989926
0.84651062
0.86115293
0.88116655
0.90294154
0.92568022
0.94787189
0.96757142
0.9843284
0.99898653
1.0113807
1.0199543
1.0260178
1.0307142
1.0345064
1.0355705
1.0358294
1.0350705
1.0324564
1.0269674
1.0207122
1.0145249
1.008032
1.0015752
0.99623991
0.99168345
0.98589437
0.97955423
0.97316033
0.96669165
0.95823365
0.94994265
0.94226678
0.93527947
0.92885031
0.92544554
0.92574461
0.9287166
0.93359426
0.94023894
0.94742034
0.9527637
0.95702959
0.96121572
0.96595635
0.96977508
0.97491491
0.9812574
0.98781155
0.99322783
0.99906428
1.0053608
1.0108995
1.0154071
1.0194555
1.0222577
1.0215174
1.0181847
1.0133053
1.0077006
1.0003354
0.99427208
0.98997569
0.98656394
0.98221827
0.97774554
0.97268846
0.96610695
0.95884558
0.95321107
0.95020035
0.94865708
0.94924399
0.95164824
0.95480073
0.95608475
0.95741014
0.95921749
0.96136399
0.96301441
0.96542959
0.96811617
0.96969603
0.97035897
0.97170898000000006
0.97443031
0.97751796
0.98201388
0.98785937
0.99398916
0.99734776
0.99970742
1.0013216
1.002045
1.0012084
1.0007892
1.0007393
0.99960445
0.99711057
0.99433234
0.99127116
0.98631154
0.98052938
0.97455961
0.96846255
0.96050621
0.95332602
0.94755707
0.94289622
0.93817479
0.93450763
0.93128227
0.92678846
0.92051838
0.91307235
0.90378407
0.89040738
0.87384653
0.85582602
0.83920857
0.82665331
0.82535897
0.83939431
0.86926048
0.91123785
0.96062811
1.009365
1.0488063
1.0741386
1.0853674
1.0847711
1.0750093
1.0618324
1.0494031
1.0393511
1.0295507
1.02139
1.014195
1.0071304
0.99945303
0.99347998
0.9895358
0.98605703
0.9820757
0.97792567
0.97352754
0.96822394
0.96474581
0.96513295
0.96928291
0.9730404
0.97484417
0.97116689
0.95957372
0.94002859
0.91773671
0.8975429
0.88238288
0.87394268
0.8727307
0.87717643
0.88475318
0.89668726
0.91473641000000006
0.93948974
0.96757836
0.99737257
1.0239036
1.0423642
1.050346
1.0514971
1.0499554
1.0487453
1.0502099
1.0551651
1.0612601
1.0641871
1.063581
1.0603695
1.0559884
1.049946
1.0449432
1.0405178
1.0349736
1.0265381
1.0168722
1.0068877
0.9965721
0.98657891
0.97787003
0.96956215
0.95894984
0.94662007
0.9337154
0.92155275
0.90976753
0.90194585
0.89901329
0.90020695
0.90338323
0.90872272
0.91518619
0.92127401
0.92730933
0.93515312
0.94527481
0.95570985
0.96646778
0.97663096
0.98480299
0.9882726
0.98952012
0.98918029
0.9867752
0.98064834
0.97140666
0.95842421
0.94147303
0.92353108
0.91003033
0.9052705
0.91047847
0.92690185
0.95251097
0.98283946
1.0111506
1.0360131
1.0555043
1.0682912
1.0732522
1.0724687
1.0667235
1.0561874
1.0428212
1.0302802
1.0208936
1.0144251
1.0118384
1.0125622
1.0148858
1.0154438
1.0157312
1.0160751
1.0163558
1.0156204
1.0148552
1.0129212
1.0074327
0.99753656
0.98415542
0.96770679
0.9474848
0.92577448
0.90469904
0.88611873
0.87041482
0.86240856
0.86476541
0.87850774
0.90246628
0.93596454
0.9748647
1.0127074
1.0441762
1.0663449
1.0773864
1.0764342
1.0674533
1.0548272
1.0419715
1.0291428
1.0192472
1.0117863
1.005035
0.99714493
0.98960994
0.98297441
0.97690619
0.97198841
0.96928564
0.96813166
0.96607357
0.96362716
0.96135296
0.95966301
0.95725458
0.95693448
0.95901777
0.96258036
0.96583383
0.9695175
0.97295988
0.97472019
0.97474186
0.97429544
0.97350323
0.97069035
0.96647433
0.96114767
0.95468276
0.94557242
0.9368788
0.9297813
0.92452254
0.92042826
0.91886324
0.91910397
0.91933941
0.91933096
0.92027466
0.92239268
0.92431614
0.92699353
0.93057318
0.93452301
0.93682458
0.93968924
0.94360877
0.94835867
0.95301551
0.95851901
0.96396526
0.96747969
0.96879003
0.96926426
0.96968515
0.96936307
0.97009052
0.97270157
0.97664807
0.97866038
0.97970429
0.97898774
0.97562156
0.96887794
0.96130443
0.9538322
0.9458284
0.93725232
0.9289662
0.92083893000000006
0.91163906
0.90316551
0.89678712
0.89255038
0.88759675
0.88226055
0.87507016
0.86493938
0.8518514
0.83928415
0.82921131
0.82149665
0.81569821
0.81169188
0.80901228
0.80769615
0.81231312
0.82766026
0.85642386
0.89611104
0.94419094
0.99350541
1.0360227
1.0656379
1.0825506
1.0887582
1.0867747
1.0800847
1.0720439
1.0633137
1.0520612
1.0394528
1.0269404
1.0156801
1.0057003
0.99756364
0.98908059
0.97788603
0.96350341
0.94809207
0.93341359
0.92000439
0.90767328
0.89501468
0.88077701
0.86601628
0.85574956
0.85388029
0.8601429
0.86854463
0.87173798
0.86339861
0.84467569
0.82581079
0.82128855
0.83910041
0.87455005
0.91236523
0.93506846
0.9355633
0.92541871
0.93274902
0.98275001
1.0778589
1.1863468
1.2520241
