0.99717557
0.97591413
0.99614774
1.0406988
1.0840045
1.105976
1.1004575
1.0747169
1.0433572
1.0202216
1.013448
1.0216555
1.0365935
1.0477927
1.0501594
1.0440855
1.0347666
1.0276584
1.0284839
1.0387696
1.0562918
1.0756331
1.0927298
1.1056224
1.1145827
1.120814
1.1266231
1.1347196
1.1462641
1.1601892
1.1737268
1.1848586
1.191245
1.1910653
1.1829565
1.1692886
1.1533376
1.1387603
1.1263767
1.1195225
1.1177197
1.1190052
1.1193765
1.1182718
1.1155246
1.1115291
1.106022
1.1004418
1.0962702
1.0934567
1.090577
1.086553
1.0822441
1.0776672
1.0727061
1.0667054
1.0618395
1.058513
1.0567376
1.054464
1.0536062
1.0544173
1.0573408
1.0615336
1.0691137
1.0812728
1.0981495
1.1178544
1.1394717
1.1620127
1.1834561
1.2011757
1.2137197
1.2220984
1.2264487
1.2264971
1.2211196
1.2122266
1.2000988
1.1853223
1.167089
1.1494569
1.13454
1.1237836
1.1158998
1.111483
1.10954
1.1083587
1.105431
1.1009268
1.0963723
1.0927197
1.0897373
1.0869831
1.0850259
1.0828685
1.0793216
1.0732566
1.0672583
1.0626963
1.0605122
1.0588953
1.059063
1.0597722
1.0598351
1.0574007
1.0546762
1.0540645
1.0575793
1.0651759
1.0770967
1.0925589
1.1089656
1.122811
1.132053
1.137736
1.1407531
1.1420815
1.14188
1.1428488
1.1451066
1.1480365
1.148778
1.1490105
1.1486139
1.1475368
1.1440678
1.13941
1.1338895
1.1273245
1.1184794
1.1082686
1.0984749
1.090098
1.0830618
1.0773524
1.0741368
1.0728461
1.0721725
1.0701505
1.0680019
1.0656986
1.0633663
1.0593641
1.055995
1.0535103
1.0518735
1.0494265
1.0474498
1.0467234
1.0477718
1.0500562
1.0546703
1.0628718
1.0745067
1.0878961
1.1013303
1.1144736
1.1258
1.1337411
1.1367642
1.1371338
1.1360185
1.1346423
1.1320037
1.1307747
1.1309186
1.1317128
1.1305373
1.127935
1.1240486
1.1189587
1.1118661
1.103958
1.0968962
1.0912237
1.0862947
1.0816595
1.0783194
1.0758263
1.0731552
1.068661
1.0638098
1.0588594
1.0543329
1.0491148
1.0460005000000001
1.0454307
1.0469825
1.0479456
1.0480651
1.0466091
1.0432045
1.0374809
1.0318183
1.0295205
1.0325483
1.0406787
1.0525118
1.0669048
1.0809071
1.0915552
1.0965188
1.098012
1.0977529
1.0976222
1.0969459
1.0980992
1.1003806
1.1024404
1.1015334
1.098687
1.0949977
1.0914717
1.0876789
1.0842896
1.081698
1.0789686
1.074444
1.0676343
1.0605369
1.0544006
1.0499215
1.0465175
1.0456422
1.0465023
1.0479693
1.0473351
1.046397
1.045545
1.0451691
1.0438795
1.0426499
1.0414556
1.0398778
1.0368107
1.0334851
1.0320784
1.0338658
1.0386269
1.0456005
1.0546823
1.0640566
1.0715904
1.0752444
1.0768445
1.0774126
1.0780955
1.077766
1.0787053
1.0805209
1.0822899
1.0815328
1.0791684
1.0759127
1.0723282
1.067769
1.0630975
1.0593482
1.0564351
1.05337
1.0498156
1.0473054
1.0461127
1.0457616
1.0446603
1.0437166
1.0421591
1.0393419
1.0333038
1.0267292
1.0209221
1.0171509
1.0147521
1.0151345
1.0181623
1.0225668
1.0256714
1.0267589
1.0262934
1.0247404
1.0224372
1.0205612
1.0218176
1.0271319
1.0360744
1.0466271
1.0589242
1.0712184
1.0817872
1.0875459
1.0902269
1.0903923
1.0890003
1.0855875
1.0824163
1.0805755
1.08011
1.0793858
1.0782661
1.0771559
1.0758128
1.073418
1.0698814
1.0669076
1.0648716
1.0634086
1.0611525
1.0593701
1.0576784
1.0556491
1.0511996
1.0465114
1.0421692
1.038769
1.0353264
1.0333659
1.0333522
1.0348708
1.0360431
1.0365656
1.0367995
1.0366453
1.0356015
1.0339944
1.0339225
1.0361359
1.0404849
1.0455809
1.052301
1.0596385
1.0663994
1.0697062
1.0712593
1.0713949
1.0707882
1.0687011
1.0672742
1.0675574
1.0695612
1.0715283
1.0731226
1.0744957
1.0751457
1.0740834
1.0712276
1.0684879
1.0665301
1.06526
1.0634331
1.0622381
1.0609556
1.0586832
1.0529062
1.0456052
1.037516
1.0297888
1.0222722
1.0174337
1.0164278
1.0190253
1.0229201
1.0268858
1.0301524
1.0316884
1.0306343
1.0277015
1.0259693
1.0274235
1.0329599
1.041688
1.0542788
1.0689533
1.0834946
1.0941699
1.1019455
1.106768
1.1091085999999999
1.1081599
1.1059071
1.1033661
1.1008204
1.097239
1.0933122
1.0902281
1.0881935
1.0862682
1.0836598
1.0809873
1.0776082
1.0726772
1.0651799
1.0574999
1.0507641
1.0459033
1.0415264
1.0394958
1.0391141
1.0391572
1.0369087
1.0328983
1.0276908
1.0220801
1.016123
1.0115133
1.0099668
1.0115863
1.0148086
1.0179551
1.0208023
1.0223218
1.0217914
1.0187251
1.0160422
1.015285
1.017425
1.0207261
1.0264061
1.0331057
1.0392292
1.042098
1.042815
1.042564
1.0424723
1.0423279
1.0431135
1.0455648
1.0489295
1.0513648
1.0517412
1.0510775
1.0495837
1.0472158
1.0432352
1.0396116
1.0365841
1.0342384
1.0308777
1.0287969
1.0282877
1.0291365
1.0290855
1.0282927
1.0262099
1.0222734
1.0155704
1.0076765
1.0011209
0.99741607
0.99642252
0.99732854
0.99995534
1.0025741
1.0033999
1.0010364
0.99803226
0.99630766
0.99780942
1.0020366
1.0110923
1.0239702
1.0386151
1.0511971
1.0610693
1.0677326
1.0711416
1.0707601
1.068047
1.0648877
1.0619895
1.0588079
1.0549955
1.0517687
1.0491525
1.0467745
1.0436283
1.0415247
1.0405599
1.0404724
1.0389226
1.0374201
1.0357154
1.0336905
1.0300039
1.0263305
1.0236546
1.0221991
1.0205532
1.018516
1.0161933
1.0130542
1.0082722
1.0021169
0.99689195
0.99373465
0.99282055
0.99288071
0.99464991
0.99706366
0.9991922
0.9990324
0.99917979
1.0009753
1.0055837
1.0120207
1.0210416
1.0317634
1.042365
1.0500645
1.0544719
1.056537
1.0571047
1.0564931
1.0553306
1.0552727
1.0561523
1.0569105
1.0557709
1.0540122
1.0517805
1.0494309
1.0455846
1.0426062
1.0406654
1.0394377
1.0368411
1.0335387
1.0296912
1.0253064
1.0195644
1.0135122
1.0087065
1.0056875
1.0038242
1.0025638
1.0026424
1.0034781
1.0040712
1.0029544
1.0016272
1.000267
0.99892607
0.99570159
0.99227839
0.9884305
0.98388341
0.97714407
0.96987237
0.96344651
0.95896112
0.95619667
0.95625622
0.96022638
0.96778843
0.97730077
0.98733865
0.99810724
1.0086092
1.0174673
1.0227812
1.0258505
1.0267562
1.0258424
1.0218705
1.0178072
1.0146682
1.0130346
1.0114446
1.0108056
1.0110226
1.011453
1.0104631
1.0084443
1.0066635
1.0057497
1.005438
1.0056125
1.0073233
1.0100248
1.0124658
1.0127811
1.0121617
1.0108154
1.0093469
1.006926
1.0066052
1.0094242
1.0158164
1.0241115
1.0347145
1.0469382
1.0594475
1.0698502
1.0776725
1.0834339
1.087315
1.0889759
1.0886332
1.0881009
1.0878371
1.0875622
1.0860637
1.0848058
1.0836805
1.0824788
1.0791832
1.0757639
1.0723874
1.0691006
1.0643791
1.0594064
1.0546088
1.0498495
1.0437708
1.0367024
1.0296334
1.0229559
1.0164492
1.0104449
1.0067548
1.0056507
1.0064098
1.0071436
1.0083797
1.0091967
1.008964
1.0059148
1.0027499
1.0008066
1.0013313
1.0036768
1.0092189
1.0178681
1.0284461
1.038319
1.0466376
1.0534029
1.0582811
1.0605475
1.0603103
1.0594645
1.058581
1.0575515
1.0553761
1.0537759
1.052759
1.0521496
1.049862
1.0478663
1.0462282
1.0448905
1.0422092
1.0393793
1.036827
1.0344239
1.0307994
1.0262711
1.0217045
1.0171959
1.0120937
1.0063219
1.0015572
0.99829623
0.9964695
0.99511997
0.99570273
0.99781548
1.0006388
1.0014464
1.0014658
1.000545
0.99899736
0.99622451
0.99466762
0.99604912
1.0011464
1.0087816
1.0185341
1.029741
1.0406114
1.0487417
1.0528925
1.0542913
1.0538085
1.0523716
1.0502995
1.0502984
1.0526845
1.0567096
1.0589949
1.0601096
1.0592257
1.0563663
1.0510238
1.0462347
1.0442796
1.0460636
1.0498688
1.0542799
1.0576505
1.0577124
1.0525125
1.0422003
1.0300129
1.0186534
1.0099596
1.003866
1.0015789
1.0017027
1.0024157
1.0006233
0.99804267
0.99552247
0.9941479
0.99313534
0.99349269
0.99460762
0.99492281
0.9920455
0.98625618
0.97972909
0.97502782
0.97434598
0.97981672
0.99368974
1.0150222
1.0405111
1.0650264
1.0861021
1.1007463
1.1076451
1.1057219
1.0992692
1.0913766
1.0846064
1.0788138
1.0751659
1.072936
1.0704622
1.0652813
1.0575768
1.0490834
1.0413592
1.035086
1.0307414
1.0293873
1.0299081
1.0302476
1.0278839
1.0237865
1.0183724
1.0126818
1.0062097
1.0019111
1.0002105
1.0005795
1.0004303
0.99978719
0.99844556
0.99648859
0.99358483
0.99137059
0.99173308
0.99493627
0.99930925
1.0026643
1.004066
1.0019085
0.99532223
0.98429743
0.9730404
0.96474504
0.96195392
0.96374769
0.97166197
0.98370469
0.99703397
1.0074517
1.0147569
1.0193356
1.0220762
1.0229896
1.0234894
1.0247703
1.0264066
1.0267019
1.0245321
1.0209758
1.0165368
1.0117023
1.0063628
1.0029329
1.0017235
1.0023152
1.0020471
1.0020365
1.0018525
1.0014215
0.99965768
0.99844654
0.99893385
1.0014182
1.0045543
1.0082485
1.012901
1.0185349
1.0250284
1.0332786
1.0458216
1.0633464
1.0847364
1.1066428
1.1272224
1.1428632
1.1506924
1.1478504
1.1374281
1.1225745
1.1071257
1.0929088
1.0832034
1.0788585
1.0786778
1.0793504
1.0792398
1.0779367
1.0751109
1.0703514
1.0640851
1.0583607
1.0536162
1.0493252
1.0439227
1.0385532
1.0330109
1.0272719
1.0197831
1.0130059
1.0075726
1.0037897
1.0001583
0.99764816
0.99643668
0.9962608
0.99582926
0.99558409
0.99643614
0.9982842
0.99990739
1.0003588
1.000382
1.0000003
0.99950569
0.99929127
1.002942
1.0121834
1.0276101
1.0464263
1.0685044
1.0907655
1.109939
1.1220036
1.1273261
1.1270047
1.1226289
1.1148168
1.1055248
1.0964768
1.0878269
1.0785177
1.0680928
1.0581868
1.0495499
1.0425277
1.0364856
1.0331251
1.0319873
1.0320771
1.0304479
1.0283753
1.0257602
1.0228527
1.0186647
1.0149827
1.0127035
1.0118781
1.0110239
1.0100432
1.0093196
1.008613
1.0071854
1.0051113
1.0043332
1.0056778
1.0093099
1.0143271
1.022079
1.03196
1.0429285
1.0520148
1.0602929
1.0673209
1.072913
1.0756158
1.0770845
1.0782239
1.0793063
1.0791909
1.0783563
1.0776766
1.077124
1.0758552
1.073615
1.0718843
1.0708461
1.0700523
1.0681682
1.0665469
1.0648861
1.0627654
1.0580142
1.0526096
1.0469028
1.0412972
1.0347351
1.0288891
1.0245975
1.0219987
1.019828
1.0182747
1.0179181
1.0184807
1.0188878
1.0186165
1.0188822
1.0198333
1.0212153
1.022107
1.0242731
1.0278247
1.032545
1.0361534
1.0401874
1.0443156
1.0481987
1.050105
1.0514074
1.0528845
1.054802
1.0560492
1.0570501
1.0585615
1.0603698
1.0614007
1.0611809
1.0610565
1.0611614
1.061066
1.0594994
1.0579373
1.0562033
1.0540504
1.0495173
1.0448616
1.0406162
1.0372278
1.0334889
1.0307537
1.0294007
1.0290971
1.0282315
1.026869
1.0256952
1.0247313
1.0233138
1.0213505
1.0204047
1.0208711
1.0226467
1.0248908
1.0293367
1.0359466
1.0442296
1.051598
1.0590826
1.0659221
1.0715029
1.074023
1.0750781
1.0758504
1.0769483
1.0772434
1.0769316
1.0765683
1.0757993
1.0735906
1.0697845
1.0665008
1.0644982
1.0635131
1.0617317
1.0600483
1.0576252
1.0539311
1.0470694
1.0401683
1.0346249
1.0312988
1.028546
1.0266591
1.0248049
1.0219789
1.0169658
1.011264
1.0073894
1.0066348
1.0081943
1.0101573
1.0111415
1.0087275
1.0015587
0.99007208
0.97980693
0.97606116
0.98351294
1.0028112
1.035337
1.0776033
1.1241325
1.1676418
1.2050333
1.2345812
1.2560992
1.2694694
1.2768626
1.2808907
1.2828453
1.2827304
1.2808328
1.2791072000000001
1.2779302
1.276571
1.2727535
1.2663454
1.2552865
1.2377287
1.2109555
1.1778009
1.1407348
1.1031732
1.0672476
1.0373158
1.0157594
1.00285
0.99615596
0.99389256
0.99448443
0.99590182
0.99613277
0.99461135
0.99316854
0.99282365
0.99402892
0.99616146
1.0008138
1.0077829
1.0167546
1.0259602
1.0377399
1.052902
1.0719502
1.0931683
1.1166636
1.1406034
1.1618259
1.1757657
1.1805065
1.1760233
1.1632162
1.1438745
1.1216082
1.10187
1.0877411
1.0800267
1.0769265
1.0781348
1.0808521
1.0824753
1.0795976
1.0745112000000001
1.0684959
1.0630928
1.0579144
1.0545266
1.0527117
1.051065
1.0469805
1.0400625
1.0313508
1.0219468
1.0125664
1.0042028
0.99872251
0.99591102
0.9943318
0.9916127
0.98836699
0.98449045
0.98066116
0.97646399
0.97541016
0.97874107
0.98660944
0.99651298
1.0078068
1.0186996
1.0271943
1.0309598
1.0306434
1.0283569
1.0258547
1.0239222
1.0232513
1.0252544
1.0291519
1.0331639
1.034865
1.035204
1.0342208
1.0323964
1.028549
1.0254105
1.0233799
1.0222528
1.0199143
1.0170474
1.0138059
1.0101727
1.0052409
0.99999131
0.99590545
0.99340424
0.99172792
0.99023509
0.98968878
0.98956344
0.98893853
0.98643835
0.98375835
0.98138396
0.97983583
0.97890785
0.97971147
0.98160497
0.98388368
0.98593914
0.98936382
0.99509908
1.0032629
1.0124794
1.0214585
1.0282022
1.0310891
1.030326
1.0290765
1.0317032
1.0403385
1.0536722
1.0670363
1.0751729
1.0733561
1.0616412
1.0453838
1.0352381
1.0388609
1.0571902
1.0819643
1.100342
1.0991573
1.073467
1.0313106
0.99348974
0.983259
1.013732
1.0780858
1.1482594
1.1824437
