1.0167644
1.0266286
1.0607021
1.0903558
1.0957776
1.0763121
1.0464968
1.0229899
1.0164704
1.0248113
1.0370894
1.043026
1.0408543
1.0355614
1.0327182
1.0363455
1.0445768
1.0505795
1.0462485
1.0294003
1.0024026
0.96995331
0.93794848
0.91172339
0.89352885
0.88132606
0.87419373
0.87064148
0.86921266
0.86884587
0.87100657
0.87679303
0.88471105
0.89460916
0.90506569
0.91426665
0.92105545
0.92971584
0.94348527
0.96369469
0.99065291
1.0228298
1.0557301
1.0833157
1.1046894
1.1199896
1.1303711
1.137361
1.1443452
1.1515539
1.156482
1.1581921
1.1565174
1.1514431
1.1419144
1.1321838
1.1240487
1.1173028
1.1109137
1.1053481
1.099582
1.0914382
1.0823267
1.0736241
1.065057
1.0535514
1.038591
1.0177002
0.98828312
0.95095904
0.90998005
0.86969425
0.83220651
0.80201084
0.78077986
0.76790793
0.76159558
0.76286051
0.77081724
0.78254604
0.79683958
0.81299264
0.8302152
0.84705561
0.86800409
0.89531508
0.92891262
0.96691859
1.007052
1.0443846
1.0732403
1.0930586
1.1051336
1.1116738
1.1144236
1.1176414
1.122021
1.125793
1.1280174
1.1290768
1.1290683
1.1272537
1.1267888
1.1288638
1.1324975
1.1350914
1.1363664
1.1347424
1.1283915
1.1187726
1.1087524
1.1001715
1.0916605
1.0844482
1.0768459
1.0658756
1.0492438
1.027824
1.0023297
0.9724174
0.94040323
0.90811625
0.87631119
0.84451333
0.81620859
0.79334381
0.77639072
0.76623146
0.76365887
0.76686605
0.77143031
0.7771937
0.78398739
0.79256666
0.80479775
0.82522741
0.85484999
0.89051406
0.92850859
0.96397729
0.9920767
1.0091035
1.01886
1.025197
1.0313154
1.0392909
1.0501219
1.0611622
1.0678298
1.0694784
1.0667198
1.0608916
1.0528843
1.0465995
1.0428438
1.0402018
1.0380616
1.0371638
1.0374602
1.037274
1.0379419
1.038835
1.0374818
1.0303581
1.0168418
0.99608267
0.96757015
0.93401805
0.89946946
0.86695532
0.83648462
0.81061618
0.78917839
0.77082625
0.75474612
0.74226471
0.73339593
0.72620925
0.72088385
0.71698935
0.71402023
0.7119627
0.7153765
0.72730597
0.74865528
0.77930618
0.81729448
0.85755114
0.8931298
0.92166785
0.941665
0.95313377
0.95756721
0.9592948
0.96040888
0.9606707
0.96084252
0.96133951
0.96182159
0.96062395
0.96067058
0.96260081
0.96530133
0.96698889
0.96707241
0.96348863
0.95339262
0.93790278
0.91904553
0.89852119
0.87653402
0.85577011
0.83662459
0.81807407
0.80008737
0.78409575
0.77058252
0.75797089
0.74716306
0.73788043
0.72922684
0.72038287
0.7136208
0.71003249
0.70887773
0.71026371
0.71391844
0.71867935
0.722409
0.72795624
0.73720376
0.75152416
0.77213061
0.80034292
0.8344531
0.87005012
0.90451133
0.93480471
0.95803268
0.97182331
0.97826122
0.97876292
0.97426829
0.96703934
0.96013577
0.95513491
0.95128246
0.95057491
0.95284839
0.95588453
0.95621609
0.95359346
0.94779321
0.93918685
0.93133116
0.92812488
0.93025906
0.93272166
0.93190454
0.92215394
0.89945182
0.86428097
0.82347057
0.78442885
0.75147853
0.7278398
0.71298973
0.70366657
0.69563244
0.68989728
0.68751127
0.68856877
0.69313779
0.70146643
0.71281264
0.72619387
0.74587765
0.77553593
0.81639703
0.865932
0.92021359
0.97166706
1.0124166000000001
1.0398608
1.0558313
1.0644989
1.0692862
1.0760748
1.0864032
1.0988114
1.1112429
1.1234656
1.1343778
1.1415316
1.1453358
1.1458035
1.142159
1.1327772
1.1207416
1.1080847
1.0957886
1.0852165
1.0779681
1.0730318
1.066055
1.0554169
1.0390045
1.0149754
0.98235112
0.94466979
0.90509475
0.86537602
0.828338
0.79662381
0.77116945
0.75000734
0.7351447
0.72645766
0.72253092
0.72211239
0.7264125
0.73597391
0.75067515
0.77398607
0.80837832
0.85358086
0.90563507
0.96153644
1.01507
1.059614
1.092256
1.1138877
1.1265608
1.131874
1.1347805
1.1377272
1.1412136
1.1449344
1.1508108
1.1587172
1.1667088
1.1744265
1.1814664
1.1867322
1.1877848
1.1873708
1.1862284
1.1835183
1.1778077
1.1693915
1.1576916
1.1416343
1.1237563
1.1064302
1.0897148
1.0700571
1.0456663
1.0134994
0.97174208
0.92299366
0.87407888
0.83146501
0.79771869
0.77535267
0.76255724
0.75507009
0.74877291
0.74439546
0.74267775
0.74353236
0.74842419
0.75793984
0.77113902
0.7857682
0.80486091
0.82979434
0.86057189
0.89625804
0.93559275
0.9745001
1.0075877
1.0337511
1.0529222
1.0655362
1.0716957
1.0747989
1.0756137
1.0734121
1.0690021
1.06454
1.0611269
1.0578949
1.0573136
1.059705
1.0636439
1.0667443
1.0694634
1.0706854
1.0680212
1.0610513
1.0499042
1.0336587
1.0092177
0.97815456
0.941434
0.90052768
0.85820763
0.81972927
0.7882727
0.76347966
0.7455597
0.73332122
0.72467282
0.71715225
0.71326387
0.71453559
0.72090055
0.73221265
0.74823425
0.76700172
0.78539358
0.80508461
0.82743277
0.85312851
0.88184792
0.91421557
0.94783926
0.97868297
1.0053153
1.0276033
1.0457527
1.0590376
1.0707289
1.0814671
1.0903668
1.096747
1.1017973
1.1055106
1.1065182
1.1065928
1.1069718
1.1076251
1.1068314
1.1063537
1.1060595
1.1045746
1.1014023
1.097183
1.0910035
1.0794481
1.0620103
1.0375181
1.0048345
0.96363231
0.91800332
0.87187775
0.82798981
0.79002904
0.76077495
0.74037888
0.72533891
0.71582286
0.71031864
0.70720804
0.70632779
0.71063707
0.72216141
0.74106161
0.76929906
0.80667252
0.85036386
0.89532703
0.93942835
0.97913557
1.0112326
1.0355023
1.0538556
1.0676289
1.0765551
1.0832407
1.0882048
1.0907608
1.0902004
1.088809
1.0874892
1.0857688
1.0850944
1.0866774
1.0901329
1.0925473
1.0955416
1.0988178
1.1013808
1.1025793
1.1036566
1.1038779
1.0999972
1.090741
1.0748377
1.0510062
1.0178805
0.97892295
0.93696988
0.89378166
0.85151313
0.8131005
0.78001572
0.75153011
0.73000251
0.71602686
0.70824368
0.70395118
0.70326119
0.70570569
0.71134411
0.7239347
0.7475988
0.78365919
0.82841971
0.8788765
0.92806077
0.96892769
0.99806101
1.0174584
1.0305837
1.0403735
1.0512004
1.0642409
1.0775379
1.0873273
1.0939157
1.0972917
1.0978191
1.0978914
1.1004189
1.1054719
1.1094522
1.1116635
1.1102621
1.1036585
1.0914266
1.0775174
1.0644387
1.0520159
1.0398914
1.0265698
1.0088848
0.98207687
0.94740106
0.90668883
0.862548
0.81829147
0.77900343
0.74753592
0.7236878
0.70850308
0.70159812
0.70060289
0.70116368
0.70300118
0.70544908
0.70886504
0.71675037
0.7341773
0.7634811
0.80232626
0.84859294
0.89683811
0.9411064
0.97763108
1.0080073
1.0341256
1.0569368
1.078262
1.098348
1.1156921
1.1275656
1.1364956
1.1437228
1.1494854
1.1535092
1.1560257
1.1553632
1.1490849
1.1393057
1.1291737
1.1212081
1.1154865
1.1136507
1.1137216
1.1116008
1.1043143
1.0911934
1.0715298
1.0433529
1.0082551
0.96754188
0.92261466
0.87536622
0.83120136
0.79395439
0.76462275
0.74375874
0.7305406
0.72236849
0.71482488
0.70894629
0.70503051
0.70315415
0.7038151
0.70901776
0.71885915
0.73184388
0.74958583
0.77313489
0.80228849
0.83513312
0.87201191
0.91039849
0.94651298
0.97842227
1.0057218
1.0275932
1.0424147
1.0524268
1.0587247
1.0618476
1.0624699
1.0636856
1.0663498
1.069093
1.0717406
1.0737319
1.0735062
1.0680489
1.0598153
1.0502147
1.0400872
1.030046
1.0217475
1.0144033
1.0046545
0.99126789
0.97328547
0.94979232
0.91953879
0.88558422
0.85014319
0.81447164
0.78045045
0.750723
0.72613079
0.70484071
0.68788709
0.67529839
0.66654485
0.660967
0.66065621
0.66571587
0.6744113
0.68674227
0.70333908
0.72506506
0.75225029
0.78916792
0.83622363
0.88980026
0.94356418
0.99101685
1.0254071
1.0425439
1.0459246
1.0421394
1.0378025
1.036441
1.041209
1.0500075
1.0581453
1.0630476
1.0653979
1.0663812
1.0656378
1.0656849
1.066642
1.0669804
1.0646801
1.0609593
1.0554927
1.0457106
1.0296293
1.0055261
0.97188784
0.92750517
0.87789996
0.82896047
0.78569592
0.75117213
0.72738076
0.71237699
0.70117845
0.69146055
0.68240292
0.67449707
0.66865492
0.66955013
0.67956953
0.69871852
0.72674307
0.76310469
0.80550872
0.85004888
0.8961127
0.94149304
0.98272045
1.0159737
1.0403282
1.0547322
1.0591816
1.0578961
1.0562142
1.0577935
1.0622247
1.070558
1.0797576
1.085566
1.0855906
1.0815487
1.0752325
1.0670072
1.0592349
1.0525524
1.0456823
1.0358332
1.0240768
1.0101796
0.99259122
0.97019426
0.94313523
0.9112548
0.87396615
0.83538898
0.79966598
0.7696166
0.74579461
0.72957377
0.71974178
0.7134397
0.71017941
0.71078537
0.7154985
0.72203289
0.73171115
0.74342458
0.75562833
0.76847035
0.78525422
0.80832608
0.83785471
0.87476362
0.91682559
0.95894779
0.99459381
1.0215578
1.0381977
1.0447914
1.0452017
1.0448176
1.0469137
1.0512007
1.0584556
1.0666134
1.0726019
1.0741989
1.0733369
1.0715313
1.0691326
1.0676336
1.0676815
1.0679437
1.0647403
1.058893
1.0504663
1.0394322
1.0260399
1.0119476
0.99663823
0.97709692
0.95246434
0.92247727
0.88753544
0.84837149
0.81016491
0.7766141
0.74918497
0.72852474
0.71478371
0.70606467
0.69864163
0.69299032
0.68929191
0.68751104
0.68759371
0.69223966
0.7025776
0.71869148
0.74260883
0.77567851
0.81666333
0.86058175
0.90467587
0.94369138
0.97292003
0.99092033
1.0006039
1.0052697
1.0070655
1.0095955
1.0139206
1.0187448
1.0213681
1.0228756
1.0233455
1.02231
1.0205647
1.019521
1.0186291
1.01491
1.0089832
1.0009172
0.99061
0.97786907
0.96518218
0.9529825
0.93928627
0.9229487
0.90334874
0.87970915
0.8503547
0.81879637
0.78773625
0.75898567
0.73371315
0.71401318
0.6998664
0.68907124
0.68188857
0.67853203
0.67855144
0.68026252
0.68549355
0.69420389
0.70548239
0.720211
0.74099356
0.76958678
0.80565743
0.85051334
0.90152502
0.95260368
0.99609234
1.0274587
1.0437396
1.0454299
1.0391602
1.0334959
1.034729
1.0435013
1.0594547
1.0769059
1.0888956
1.0913266
1.0855822
1.0747313
1.0612677
1.0493476
1.0408293
1.0350183
1.0293004
1.0249407
1.022096
1.0194992
1.0156844
1.0093981
0.997893
0.97723171
0.94838268
0.91353478
0.87545701
0.83659857
0.8014095
0.77187258
0.74747181
0.72853929
0.71538916
0.70713236
0.70058504
0.69662114
0.69443054
0.6930619
0.69306555
0.69774557
0.70918582
0.7275047
0.75436721
0.78942806
0.83029877
0.87304348
0.91676591
0.95879016
0.99579758
1.0263762
1.0507405
1.0689715
1.0806408
1.0890964
1.095908
1.1005934
1.101183
1.0978525
1.0898965
1.0768382
1.0619051
1.0491082
1.0400515
1.0316639
1.0230551
1.0111746
0.99407286
0.97312696
0.95402462
0.9408814
0.93305294
0.92802069
0.92031728
0.90406224
0.87562524
0.83952802
0.80226471
0.76941754
0.74459692
0.7287692
0.71918056
0.71095055
0.70400846
0.69918286
0.6973118
0.69838466
0.70409483
0.71447409
0.72955102
0.75288007
0.788233
0.83622235
0.89169547
0.9492385
0.99941061
1.0337726
1.0494165
1.0506292
1.0441885
1.0361444
1.0326091
1.034977
1.0404015
1.0438288
1.0447963
1.0433272
1.0401595
1.0376477
1.0382319
1.0410278
1.0413441
1.0376114
1.0283389
1.0134148
0.99429739
0.97605299
0.96104856
0.94739342
0.93194275
0.91091811
0.88100871
0.84024742
0.79469936
0.75136551
0.7160183
0.6914428
0.67822501
0.67238455
0.66727014
0.6603764
0.65200401
0.64453638
0.64071737
0.64677345
0.66562424
0.69719915
0.74081661
0.79501905
0.85549582
0.9150471
0.96934262
1.0134691
1.0438433
1.0597626
1.0657745
1.0664121
1.0649252
1.0650258
1.0683659
1.073905
1.0781366
1.0818165
1.0845185
1.0857748
1.0859086
1.0867643
1.0881675
1.0877044
1.0853393
1.080915
1.0739113
1.0630657
1.0507164
1.0375929
1.0228204
1.0056911
0.98634737
0.96400531
0.9366296
0.90604628
0.8742549
0.84306882
0.81370698
0.78924828
0.77044628
0.75562474
0.74421173
0.73600069
0.7304413
0.72567407
0.72447464
0.72724794
0.73287422
0.74015861
0.74957832
0.76076726
0.77308304
0.78960333
0.81283804
0.84329792
0.8785415
0.91698928
0.95362361
0.98247446
1.0006664
1.0089111
1.0095358
1.0050821
1.0015414
1.0018769
1.0056248
1.0097525
1.0128392
1.0121958
1.0052751
0.99364618
0.98087628
0.96981583
0.96016129
0.95399087
0.94987794
0.94472282
0.93591829
0.92389761
0.90891535
0.89011399
0.86897305
0.84654935
0.82302654
0.79760642
0.77329706
0.75178231
0.73320221
0.71773005
0.70597854
0.6973391
0.68986021
0.68539905
0.68497192
0.68842802
0.69481392
0.70579853
0.72248198
0.7462212
0.78094141
0.82918935
0.88876696
0.95101705
1.0076339
1.0484358
1.0667523
1.063354
1.0469162
1.0277369
1.0132822
1.0086779
1.0130018
1.0211172
1.0267531
1.0295147
1.0300545
1.0290875
1.0277273
1.0266539
1.0240873
1.0164708
1.0051578
0.99205111
0.97864471
0.96488001
0.95181313
0.93789425
0.92013262
0.89820889
0.87380909
0.84857678
0.82191758
0.79643948
0.77274294
0.75074569
0.73101522
0.71624366
0.7071023
0.70096211
0.6963252
0.6911955
0.68445863
0.67695433
0.67596503
0.68784304
0.71621983
0.76201292
0.82228583
0.88931456
0.95268883
1.0066248
1.0470608
1.0725296
1.0840913
1.0865286
1.0833181
1.0769563
1.0705271
1.0654207
1.0617155
1.0589232
1.0586554
1.0603421
1.0620839
1.061934
1.0583563
1.0504123
1.0394509
1.0303671
1.0266067
1.0276873
1.0286945
1.0235421
1.0070585
0.97966032
0.94855578
0.92209602
0.902791
0.88423646
0.85603213
0.81029442
0.75118909
0.6973303
0.67315179
0.69146499
0.74074186
0.78592563
