0.60269498
0.64730049
0.68106465
0.6861979
0.67439681
0.66657544
0.67308793
0.68640732
0.69360974
0.6921001
0.68792243
0.68699297
0.68983559
0.69030522
0.68341857
0.67191953
0.66204048
0.65950119
0.66688916
0.68099947
0.69700845
0.71164032
0.7221438
0.72875441
0.73385856
0.73788143
0.74243714
0.74679938
0.74809333
0.74773861
0.74639598
0.7419255
0.73506192
0.72451999
0.70913344
0.69391261
0.68341496
0.68037044
0.68750416
0.70116739
0.71441705
0.7234483
0.72574011
0.72298513
0.72085215
0.72100137
0.72194482
0.72171083
0.71770235
0.71188895
0.70893594
0.70862472
0.70797878
0.70354597
0.69406787
0.68691874
0.69118409
0.70744471
0.72949469
0.74631804
0.74991609
0.74576373
0.74430948
0.75022344
0.76221856
0.77121081
0.76852856
0.75781953
0.74622455
0.73713005
0.73090301
0.72200033
0.70717633
0.69342631
0.68874093
0.69635306
0.71377856
0.73060712
0.73806756
0.7365257
0.73047265
0.72627719
0.72813355
0.73270496
0.73494113
0.73192428
0.72175664
0.70743135
0.69420395
0.68456549
0.681504
0.68621704
0.69632181
0.71144886
0.73002253
0.7472304
0.76101916
0.76907228
0.76921758
0.76572984
0.76262964
0.76062489
0.76151933
0.76235866
0.75828398
0.74995261
0.73874661
0.72691028
0.71987146
0.71908085
0.72318535
0.73159488
0.74052419
0.74656637
0.7497153
0.7490493
0.74531892
0.74142909
0.73790041
0.73576893
0.73622878
0.73698313
0.73649982
0.73417469
0.72841368
0.72122563
0.71499837
0.70872898
0.7032039
0.69920291
0.69705129
0.70152147
0.71440163
0.73053313
0.7445895
0.75034553
0.74505413
0.73653998
0.73231363
0.73418296
0.7408862
0.74572025
0.74358477
0.7379009
0.73269327
0.72970021
0.72950652
0.72890402
0.72712979
0.72869204
0.73551959
0.74614345
0.75679486
0.76157048
0.7600558
0.75723179
0.75591349
0.75658687
0.75645858
0.75071246
0.74053901
0.73082257
0.72394819
0.72109578
0.71929459
0.71321003
0.70439548
0.69744446
0.69557523
0.70267237
0.71615629
0.72790586
0.73471768
0.73520098
0.73090331
0.72866361
0.73061522
0.73346327
0.7344814
0.7303176
0.72161735
0.7145972
0.71150401
0.7097209
0.70546564
0.69477641
0.68084272
0.67352699
0.67865216
0.6955839
0.71733798
0.73330228
0.74022166
0.74284673
0.74640986
0.75469609
0.76542972
0.77099779
0.76856895
0.76005337
0.7488285
0.7410017
0.73801135
0.73517748
0.73055659
0.72290722
0.7123028
0.70526459
0.70519114
0.71046342
0.71982286
0.72875998
0.73362877
0.737022
0.74069285
0.74470715
0.74947767
0.75202235
0.75031287
0.74612624
0.7398653
0.73175425
0.72242893
0.71074925
0.69892616
0.69227366
0.69384004
0.7054849
0.72517327
0.74548647
0.76128372
0.77035967
0.77196911
0.77056064
0.76998705
0.76963065
0.77003496
0.77032385
0.76843352
0.76711057
0.76708215
0.76451607
0.75773837
0.74336294
0.72000914
0.69442729
0.67330792
0.66047908
0.65778822
0.65986416
0.65938913
0.65429105
0.64534786
0.63763195
0.63883076
0.65110738
0.67230865
0.6984713
0.72311799
0.74316633
0.75917059
0.7702587
0.77668862
0.77879551
0.7755501
0.77022866
0.76704231
0.76609921
0.76680489
0.76556757
0.75723101
0.74321658
0.7270865
0.71090657
0.6984554
0.68955951
0.68107342
0.67471877
0.67115047
0.66936746
0.67128891
0.67656495
0.68417582
0.69612471
0.71047536
0.72220535
0.7285808
0.7277405
0.72271196
0.7215154
0.72752621
0.73871789
0.74974509
0.75289288
0.74651767
0.73547036
0.72390433
0.7149934
0.70860152
0.70113133
0.69364879
0.69042047
0.69383239
0.70600126
0.72422829
0.74093196
0.75286866
0.7597615
0.76264864
0.76725009
0.77562035
0.78373705
0.78956115
0.79020924
0.7848707
0.7793118
0.77637157
0.77397433
0.7697454
0.75950592
0.74291349
0.7264059
0.71410485
0.70630382
0.7020706
0.69908817
0.70003905
0.71172996
0.73472494
0.76260488
0.78504872
0.79256009
0.7871105
0.78001134
0.78031614
0.79105772
0.80605368
0.81383003
0.81065137
0.79989144
0.78628109
0.77576046
0.76837733
0.75909794
0.74788432
0.73620404
0.72536799
0.72022197
0.72102342
0.72461074
0.73091828
0.73819092
0.74467386
0.7524098
0.76141031
0.77087873
0.7819404
0.79234826
0.79904228
0.80139484
0.79760631
0.78837698
0.77782855
0.76812802
0.76196389
0.76162087
0.76480907
0.76922575
0.77219641000000006
0.76896082
0.75889443
0.74400517
0.72621614
0.71103072
0.70206398
0.6977608
0.69726825
0.69817003
0.69743869
0.69834832
0.70402341
0.71425893
0.73031344
0.74879257
0.76428474
0.77683498
0.78635827
0.79290694
0.7995141
0.80546622
0.80843068
0.80841309
0.80334221
0.79240782
0.77871204
0.76459172
0.75354898
0.74926404
0.74984369
0.75173808
0.75220164
0.74868276
0.74402765
0.74339719
0.74748709
0.75498534
0.76197293
0.76312236
0.7596757
0.75612329
0.75505219
0.75921193
0.76664701
0.77147573
0.7725073
0.76946318
0.7618807
0.75385384
0.74668191
0.73975563
0.73585154
0.73485603
0.73497504
0.73727726
0.74067389
0.74448712
0.75134834
0.76088448
0.77124085
0.78137227
0.78769989
0.78863228
0.7863251
0.78193065
0.77752198
0.77458302
0.77021566
0.76229233
0.75018373
0.73339858
0.71576334
0.70125677
0.68978223
0.6817253
0.67628844
0.67199988
0.67284013
0.68193119
0.6973755
0.71710879
0.73535656
0.74547039
0.74884637
0.74809913
0.74514071
0.7441788
0.74516007
0.74601762
0.74782198
0.74907567
0.74714275
0.74171066
0.73098661
0.71555515
0.70025509
0.68774983
0.67958696
0.6765528
0.67558475
0.67537488
0.67776276
0.6838095
0.69575261
0.71380198
0.73250269
0.74683111
0.7537359
0.75246502
0.74880057
0.74853597
0.75173313
0.7568367
0.75935454
0.75505557
0.74769321
0.74162656
0.73719559
0.73524567
0.73276319
0.7273582
0.72430577
0.72787743
0.73810463
0.75297447
0.76503511
0.76796025
0.76322628
0.75428596
0.74513776
0.73946758
0.7356376
0.73115922
0.72574147
0.71793938
0.70810754
0.69810743
0.68805764
0.68038836
0.67792626
0.67975824
0.68555515
0.69437975
0.70360234
0.71466417
0.72881167
0.74358688
0.75795113
0.76920107
0.77372596
0.77438062
0.77452217
0.77510908
0.77907027
0.78444015
0.78631615
0.78406207000000006
0.77675278
0.76463075
0.75205508
0.74069717
0.73077501
0.72440417
0.72135481
0.721779
0.72785765
0.73842692
0.75122841
0.76441598
0.77396964
0.77839885
0.77938531
0.77762464
0.7753389
0.77435138
0.77304252
0.771366
0.76934286
0.76493132
0.75892764
0.751568
0.74104362
0.72933299
0.71800865
0.70692715
0.69966811
0.69752026
0.69847967
0.7036048
0.71071705
0.71583416
0.71946194
0.72108836
0.72034242
0.72070395
0.72291185
0.72605584
0.73089537
0.73537909
0.73779504
0.73921093
0.73862236
0.73567329
0.73152945
0.72519059
0.71741895
0.71045749
0.70418845
0.69966061
0.69772323
0.69665125
0.69717538
0.70041801
0.70528515
0.71314748
0.724503
0.73693763
0.75065219
0.76434778
0.77394119
0.77934638
0.78009681
0.77495822
0.76833968
0.76261694
0.75730577
0.75389761
0.75012825
0.74243755
0.73178339
0.71871816
0.7046862
0.69376897
0.68632118
0.68115369
0.67871584
0.67816302
0.68080708
0.69009012
0.70565615
0.72544358
0.74642376
0.7633531
0.77476402
0.78250653
0.7875365
0.79247413
0.79845624
0.8030761
0.80653121
0.8090857
0.80918573
0.80827687
0.80588958
0.79887068
0.78828156
0.77508383
0.75965814
0.74687589
0.73810456
0.73109077
0.72594352
0.72111119
0.71591885
0.71435667
0.71759274
0.72367386
0.73088331
0.73496998
0.73391102
0.73089536
0.72827103
0.72788766
0.7306716
0.73310127
0.73276488
0.72992339
0.72430913
0.71818342
0.71347778
0.70819216
0.70206102
0.69586644
0.69000664
0.68903365
0.69567124
0.70680724
0.71976621
0.73089575
0.73733932
0.74348196
0.75230125
0.76082183
0.76664929
0.76544522
0.75608948
0.74662164
0.74350285
0.74691184
0.75334264
0.7546048
0.7461908
0.73301295
0.72128846
0.71520555
0.71608338
0.72014358
0.72548756
0.73450727
0.747465
0.76266462
0.77640265
0.78296341
0.78236975
0.77985368
0.77932709
0.78391876
0.7928676
0.80092178
0.80640505
0.80905403
0.80683485
0.80045326000000006
0.78921663
0.77119649
0.750634
0.73180034
0.71616261
0.70688572
0.70210206
0.69729129
0.69291852
0.68976378
0.68952003
0.69654706
0.71005451
0.72540237
0.73932048
0.74818043
0.7523736
0.75762191
0.76693286
0.78049909
0.79640033
0.808783
0.8149131
0.81665268
0.81517818
0.8127022
0.810008
0.80415865
0.79524412
0.78489027
0.77305318
0.76209919
0.75303539
0.74431876
0.73779265
0.73400151
0.73025999
0.72683675
0.72360179
0.7205987
0.72327171
0.73331749
0.74683164
0.76077542
0.77092572
0.77635494
0.78332097
0.79504107
0.80921484
0.82145267
0.82462367
0.81670265
0.80419841
0.79343153
0.78805392
0.78732665
0.78443163
0.7752317
0.76133767
0.74596821
0.73434002
0.72891092
0.72606325
0.72312748
0.71946325
0.71566285
0.71728854
0.72835944
0.74650914
0.76823238
0.78741393
0.79781728
0.80120086
0.80098194
0.79838209
0.79648347
0.79380417
0.7871132
0.77829091
0.7678473
0.75498474
0.74125914
0.72595614
0.70961744
0.69681989
0.6889469
0.68493805
0.68379726
0.68296783
0.68364488
0.69075744
0.70539556
0.7252745
0.74532799
0.75814917
0.76197805
0.76043624
0.75660805
0.75402941
0.75322411
0.75054107
0.74587634
0.74034595
0.73356629
0.72803652
0.72408063
0.71934135
0.71569053
0.71370545
0.71138234
0.70966459
0.70643497
0.69880305
0.6895341
0.68155394
0.67778221
0.68274838
0.69539825
0.71076445
0.725407
0.73558753
0.7413027
0.74771588
0.75750589
0.77077968
0.78552623
0.79569866
0.79800171
0.79364584
0.78419852
0.77325693
0.76323933
0.7522745
0.73984792
0.72611323
0.71039249
0.69574319
0.68501211
0.6782665
0.67749928
0.68228363
0.68887661
0.69711199
0.70650388
0.7158977
0.72863694
0.74462084
0.75971704
0.77167234
0.77676061
0.77308718
0.76478634
0.75475326
0.74419562
0.73464662
0.72430049
0.71240599
0.70180298
0.69348311
0.68807936
0.68609412
0.68478041
0.68343096
0.68415062
0.68745313
0.69468012
0.70592124
0.71722983
0.72648132
0.73284231
0.73475442
0.73436661
0.73375156
0.73229397
0.73144057
0.73050218
0.72587107
0.71764781
0.70570398
0.68979611
0.67517929
0.66468308
0.65827944
0.65825408
0.66420757
0.67503419
0.69243587
0.71391015
0.73402199
0.74949299
0.75749194
0.75964819
0.76249987
0.76882374
0.77707563
0.78312165
0.78065089
0.76871557
0.75231567
0.73581267
0.72260352
0.7124964
0.7012137
0.68832358
0.67671509
0.66889845
0.66892802
0.6772081
0.68899012
0.70182191
0.7134684
0.72135242
0.72780591
0.73400029
0.73823143
0.74197731
0.7443555
0.74320702
0.74044455
0.73600725
0.72872329
0.72053385
0.71127741
0.70088582
0.69233384
0.68566343
0.6799472
0.67579209
0.67191414
0.66912241
0.67096152
0.67815276
0.69041387
0.70619519
0.72080243
0.73202741
0.7401865
0.74504661
0.7485692
0.75181889
0.75274549
0.75146288000000006
0.74806214
0.74160407
0.73513705
0.73103321
0.72914873
0.73179993
0.73816833
0.74390218
0.74853556
0.75029675
0.74747685
0.74328164
0.73892533
0.73374472
0.72895186
0.72285255
0.71344638
0.70219117
0.68947927
0.67633209
0.66550336
0.65667003
0.64918327
0.64358793
0.63861065
0.63469389
0.63323476
0.63268528
0.63292307
0.63533713
0.64084993
0.65341311
0.67505193
0.7011759
0.72580679
0.74204752
0.7449741
0.73889426
0.73093488
0.7251185
0.72432354
0.72512958
0.72072623
0.71113464
0.69832748
0.68508998
0.67683518
0.67355267
0.67149957
0.66983522
0.66776457
0.66660012
0.67084311
0.68060609
0.6923513
0.70238042
0.70605546
0.70301269
0.69797968
0.69414942
0.69299789
0.69355248
0.69123219
0.6847438
0.67674844
0.66987609
0.66842994
0.67414894
0.6838396
0.69564008
0.70737439
0.71563357
0.7211075
0.72431003
0.72429327
0.72382022
0.72381718
0.72221032
0.72007748
0.71621233
0.70839572
0.69913202
0.68994646
0.68179695
0.67827152
0.6794167
0.68322393
0.68942037
0.69577423
0.7010365
0.70653029
0.71086971
0.71236935
0.71097202
0.70585952
0.69914607
0.69455504
0.69179283
0.68945901
0.68583967
0.67902032
0.67277839
0.67294572
0.68143013
0.69820134
0.7186198
0.73509387
0.74574857
0.75121477
0.75168202
0.75022693
0.7468463
0.73878866
0.72835068
0.71714102
0.70573764
0.69778831
0.69386766
0.69281436
0.6961976
0.70269234
0.70960444
0.71646334
0.72129173
0.72355629
0.72543855
0.72607853
0.72367855
0.71758901
0.70665726
0.69362159
0.6838613
0.6790766
0.67934811
0.68323474
0.68732324
0.69258861
0.70156506
0.71327035
0.72674246
0.73893723
0.74576291
0.74941489
0.75293283
0.7558909
0.75839541
0.75690087
0.74658157
0.73051754
0.71307639
0.69754506
0.6884001
0.68458766
0.68240626
0.68227727
0.68471196
0.69136381
0.7058651
0.72704601
0.75080246
0.7732298
0.7885212
0.79380824
0.79106401
0.78263251
0.77249776
0.76419963
0.75658146
0.74880122
0.74171484
0.73642968
0.73780263
0.7490453
0.76631425
0.78390124
0.79467023
0.79296116
0.78226269
0.7686626
0.75510277
0.74415967
0.73379188
0.72016198
0.70617275
0.69480874
0.68680964
0.68359645
0.68238758
0.67998612
0.67898102
0.68138583
0.68787772
0.69956236
0.71281687
0.72379586
0.73256797
0.7382673
0.74128871
0.74372619
0.74479022
0.74471919
0.74509281
0.74481222
0.74384404
0.74210843
0.73680514
0.72810843
0.71766034
0.70620905
0.69780959
0.69497297
0.69601423
0.70107803
0.70975008
0.72124344
0.73929579
0.7646886
0.79242613
0.81825635
0.83605768
0.84214488
0.84141243
0.83895735
0.8369413
0.8366127
0.83443274
0.82748818
0.8161443
0.80281527
0.79307471
0.79118345
0.79439781
0.79559652
0.78756695
0.76906192
0.749185
0.73796628
0.73500991
0.73036653
0.71367627
0.68805025
0.67280858
0.68265531
0.70834602
0.72225983
0.70414691
0.66954623
0.66594423
0.72451519
