0.97390207
0.94407932
0.9589442
1.0060792
1.0638085
1.1135801
1.1472937
1.1669568
1.1796122
1.1912234
1.2034858
1.2120141
1.2095707
1.1903039
1.1553198
1.1107105
1.0650106
1.0241828
0.99285247
0.97145729
0.95866438
0.95250243
0.95529285
0.9713138
1.0043628
1.0539976
1.1159262
1.1824025
1.2437933
1.2913684
1.3206024
1.3330177
1.333601
1.3281887000000001
1.3207558
1.3136606
1.3058913
1.2942588
1.2743085
1.2459518
1.2096361
1.1677731
1.1221822
1.0786823
1.040819
1.0105835
0.98705608
0.97107277
0.962831
0.9621203
0.96784625
0.98081795
1.0025233
1.0328033
1.0696138
1.1102336
1.1530563
1.1947636
1.2319403
1.2612923
1.2832121
1.2971071
1.3024129
1.2967466
1.2814136
1.2565316
1.2231947
1.1822525
1.1384993
1.0961
1.0577257
1.0228437
0.99137661
0.96293394
0.93711985
0.91470159
0.8997852
0.89924941
0.91744823
0.95460658
1.0058053
1.0645728
1.120557
1.1642221
1.188582
1.1956306
1.1902508
1.1796969
1.169256
1.1643582
1.1653811
1.1689655
1.1688119
1.1611362
1.1442018
1.1182482
1.0846772
1.0472908
1.0113425
0.98058822
0.95723221
0.94260788
0.93952965
0.94818787
0.96717557
0.99266601
1.0232731
1.0550342
1.0840342
1.1056233
1.1204526
1.1291168
1.1332202
1.1334947
1.1329301
1.1330776
1.1334494
1.1310773
1.123546
1.1093681
1.0873913
1.0575318
1.0219793
0.98628453
0.95518545
0.93205632
0.9176675
0.91362495
0.91820829
0.9289882
0.94218341
0.95906977
0.97976139
1.0043863
1.0307704
1.058757
1.0863174
1.1105653
1.1277215
1.1369575
1.1388353
1.133584
1.1204924
1.0993769
1.071935
1.0398534
1.0059466
0.97416271
0.95142933
0.94200038
0.94691204
0.96199581
0.98344572
1.0045747
1.0201109
1.0267336
1.0285653
1.0312308
1.0400495
1.0562378
1.0789072
1.1029299
1.1203947
1.1233621
1.1087109
1.0793427
1.0414536
1.0028091
0.97069201
0.9518516
0.94826845
0.95841923
0.97777242
1.0039864
1.0335353
1.0634746
1.0899365
1.1128525
1.1311955
1.1443196
1.150855
1.1526199
1.1510754
1.1465984
1.1374928
1.1228633
1.102463
1.075974
1.0440188
1.0095307
0.97867105
0.95637396
0.94558824
0.94584475
0.95644375
0.97309076
0.9906998
1.0033587
1.0109178
1.0137125
1.0136524
1.0117054
1.0111066
1.0129576
1.0163906
1.0181609
1.0166303
1.0109102
1.0001835
0.98380376
0.96282562
0.94054205
0.91950153
0.9017184
0.88846793
0.88290615
0.88589813
0.89701794
0.91339758
0.93494964
0.95959963
0.98544462
1.0095437
1.0327779
1.0548929
1.0748943
1.0897926
1.0983554
1.0992791
1.0913951
1.0740559
1.0495341
1.0226017
0.9973716
0.97654314
0.9612021
0.95283293
0.95048711
0.95259617
0.95699869
0.96526968
0.97773283
0.99421204
1.0118314
1.0302781
1.0473802
1.0612774
1.0698782
1.0751637
1.0795458
1.0843979
1.0883299
1.0895535
1.0860472
1.0752856
1.0558858
1.0294397
1.0017547
0.97815689
0.9621885
0.95377199
0.95259936
0.95516413
0.9580706
0.95818875
0.95878922
0.96329482
0.97504713
0.99379727
1.0189543
1.0460265
1.068523
1.0793851
1.0762397
1.060791
1.0371287
1.0100994
0.98511598
0.96768301
0.96004669
0.96193365
0.97133425
0.98838971
1.0117036
1.0395304
1.0683105
1.0976262
1.1251535
1.1487279
1.1653384
1.1762627
1.182569
1.1854511
1.1845884
1.1812423
1.1757677
1.167152
1.1531659
1.1331157
1.1082992
1.0800078
1.0497853
1.0197136
0.99419234
0.97601733
0.96690996
0.96644469
0.97596959
0.99405512
1.0181876
1.0436693
1.0693664
1.0934098
1.1147174
1.131699
1.1460431
1.1590926
1.1710483
1.1800057
1.1846178
1.1838541
1.1759805
1.1594092
1.1343014
1.1042443
1.0728265
1.0436148
1.0189415
1.0027333
0.995682
0.99674818
1.001858
1.0107111
1.0213202
1.0323517
1.0416628000000001
1.0507618
1.0601858
1.0693646
1.0755975
1.0775955
1.0744178
1.0650294
1.0488776
1.0277858
1.0063798
0.98864491
0.97750483
0.97407854
0.9800187
0.99377531
1.0123331
1.0307991
1.0485583
1.0643804
1.0781098
1.0884352
1.0978217
1.1069346
1.1150835
1.1191005
1.1179559
1.11106
1.0982334
1.0797349
1.0584943
1.0394215
1.0259529
1.0194818
1.0194288
1.025549
1.0350265
1.0445858
1.0507988
1.0547455
1.0573165
1.0600402
1.0626531
1.0674079
1.0738517
1.0802826
1.0831222
1.0817053
1.0758005
1.0656506
1.0513069
1.03516
1.0210194
1.0121083
1.0108081
1.0191931
1.0399027
1.0723056
1.1129049
1.1553282
1.1951084
1.2267955
1.2469135
1.2531982
1.2500363
1.2416403
1.2321338
1.2226422
1.2147811
1.2070698
1.1963666
1.1785698
1.1529985
1.1213743
1.0863645
1.0504508
1.0165756
0.98838872
0.96700337
0.95175986
0.94092024
0.93579997
0.93673671
0.94436308
0.95767227
0.97900635
1.0075103
1.0405511
1.0723337
1.1000254
1.1204198
1.1319105
1.1340439
1.1305068
1.1255424
1.1216573
1.1181114
1.1127454
1.1029724
1.0856931
1.059396
1.025721
0.99106439
0.96104372
0.93929869
0.92518576
0.91891013
0.91752064
0.91912358
0.92281979
0.93489928
0.96110193
1.0050681
1.0642909
1.1334557
1.2025068
1.2598497
1.2958179
1.3081046
1.301473
1.2841783
1.2646149
1.2488749
1.2400776
1.2355782
1.2295997
1.2156456
1.1923196
1.160045
1.1218583
1.0801484
1.040901
1.0068877
0.9793383
0.95702045
0.94170329
0.9346505
0.93684787
0.94770622
0.96754705
0.99561632
1.0290825
1.063565
1.0954377
1.1229485
1.1442096
1.1578954
1.1633171
1.1626289
1.1570667
1.1477459
1.1342681
1.11922
1.1031989
1.086307
1.0667315
1.0461707
1.0257443
1.0069095
0.99010033
0.97835379
0.97395875
0.97717257
0.9856797
0.9972533
1.0102127
1.0220058
1.0304871
1.0350825
1.0386101
1.0428341
1.0486969
1.0548985
1.0618743
1.0672003
1.0679871
1.0602665
1.0448614
1.0227578
0.99598409
0.96577081
0.93568456
0.90844763
0.88558486
0.86698612
0.85380012
0.84791303
0.85032996
0.86105908
0.87997598
0.90782891
0.94296201
0.98232184
1.0216243
1.0593291
1.092643
1.1194147
1.1366683
1.1462189
1.1486625
1.144807
1.1339234
1.1180614
1.0984095
1.0756589
1.0493787
1.0212907
0.99402603
0.96983917
0.95016119
0.93678257
0.9321722
0.93645639
0.94787452
0.96318181
0.98107319
0.99886125
1.0143343
1.0249551
1.0326233
1.0381288
1.0422602
1.0439911
1.0446364
1.0438964
1.040919
1.033805
1.0230863
1.0099093
0.99520186
0.97890257
0.96192539
0.94665605
0.93467217
0.92692462
0.9241656
0.92949318
0.94383171
0.96649034
0.99395211000000006
1.0250593
1.0560289
1.0830113
1.1012122
1.1112801
1.1140186
1.1114759
1.1050432
1.0983636
1.0934473
1.0900209
1.0851873
1.076562
1.0627201
1.0427857
1.0170517
0.98783765
0.96007691
0.93692092
0.91930005
0.90524661
0.89477063
0.88668853
0.88169103
0.88120735
0.89299272
0.9230827
0.97499136
1.0460147
1.1311181
1.2202917
1.3014521
1.3629253
1.3989863
1.4096003
1.3987104
1.3722085
1.3370066
1.2997855
1.2636453
1.2287402
1.1933663
1.1581146
1.1227618
1.0876794
1.052179
1.0196546
0.99140811
0.96829268
0.94917383
0.93661196
0.93232019
0.93791257
0.9534368
0.98024298
1.0179159
1.0631838
1.1098543
1.1517657
1.1841745
1.2033407
1.2080042
1.2001425
1.1860185
1.1711745
1.159315
1.1501161
1.1433023
1.1350899
1.1214175
1.0980563
1.0674949
1.0337311
1.0023395
0.97717457
0.96339867
0.96287845
0.97414976
0.9927959
1.0158159
1.0414741
1.0679993
1.0937531
1.1179783
1.1413924
1.1626034
1.1790919
1.187468
1.18753
1.1785133
1.1608585
1.1345396
1.1041307
1.0727271
1.0429106
1.0148828
0.99065836
0.9708763
0.95549503
0.94342086
0.93597521
0.93532166
0.94291554
0.95878097
0.98274132
1.0147121
1.0519896
1.0903901
1.1252022
1.1546839
1.1764868
1.1892106
1.1911854
1.1851683
1.1725941
1.1549403
1.132031
1.106639
1.0802397
1.0537709
1.0266886
1.0005023
0.97674476
0.95630587
0.93901666
0.92577269
0.91843715
0.91757907
0.92270905
0.93289793
0.94882756
0.96902322
0.99109901
1.0113845
1.0295329
1.044069
1.0543974
1.0594189
1.062165
1.064299
1.0666074
1.0673687
1.0661294
1.0615264
1.0519478
1.0357298
1.0142161
0.99106596
0.96976593
0.95260834
0.94102178
0.93691121
0.93954874
0.94703634
0.95665992
0.96924509
0.98416557
1.0006475
1.0156884
1.0300242
1.0423351
1.0516653
1.0564257
1.0587944
1.0604643
1.0620654
1.0616774
1.0577929
1.0487287
1.0326311
1.0084682
0.97811791
0.94691254
0.91973781
0.89995926
0.88840226
0.88626046
0.89181419
0.9029589
0.91705064
0.93651605
0.96278156
0.99670737
1.0357446
1.0784694
1.1205019
1.156608
1.18124
1.1933979
1.1946818
1.1878668
1.1752844
1.1595562
1.1429767
1.125518
1.1059003
1.083179
1.0596333
1.0375206
1.0194873
1.0068965
1.0033304
1.0092352
1.0234011
1.0416698
1.0630824
1.0852776
1.1061889
1.1229392
1.1358676
1.14533
1.1512934
1.1526724
1.1497721
1.1435926
1.1344121
1.1220998
1.1072903
1.0928715
1.0808689
1.0727196
1.0684568
1.0700025
1.0767895
1.0871854
1.0970644
1.1059888
1.1119543
1.1134455
1.1081898
1.0978595
1.0840963
1.0687515
1.0528506
1.0393074
1.0306651
1.0275983
1.0287327
1.032593
1.0387782
1.045963
1.0529275
1.0587726
1.0655828
1.0736429
1.0820176
1.0870136
1.0878692
1.0822572
1.0690821
1.0477138
1.0231622
1.0007393
0.98551753
0.97982347
0.98566199
1.0019649
1.0246125
1.0474516
1.0659633
1.078253
1.083447
1.0818094
1.074674
1.0657203
1.0566058
1.0476386
1.0371197
1.0260001
1.0135574
0.99950343
0.98277337
0.96676793
0.95398188
0.94684264
0.94602724
0.953655
0.97000595
0.9933758
1.0199228
1.046667
1.0713465
1.0915435
1.1051366
1.1114892
1.112536
1.1093935
1.1026651
1.0918216
1.0786526
1.0629145
1.0441724
1.0205927
0.99523909
0.97046615
0.94952244
0.93453932
0.92981733
0.93724971
0.95580114
0.98064356
1.0067122
1.0285826
1.0411336
1.04093
1.0284851
1.0083699
0.98559333
0.96451847
0.94760723
0.93720655
0.93190705
0.92865465
0.92290706
0.91468997
0.90412839
0.89292307
0.88213921
0.8759815
0.87674486
0.8849646
0.89835699
0.91557644
0.9346998
0.95325854
0.96846571
0.97961097
0.9879055
0.99426079
0.99927875
1.0035184
1.0091159
1.0159728
1.0227335
1.0262535
1.026348
1.0214654
1.0107129
0.99255306
0.97001084
0.94555576
0.92177074
0.89959358
0.8817602
0.86982862
0.86399846
0.86280376
0.86588131
0.87344718
0.88499713
0.89953947
0.91656829
0.93711035
0.96064451
0.98557773
1.0088861
1.029723
1.0456657
1.0545161
1.0530606
1.0431177
1.0261682
1.004724
0.98039843
0.95769208
0.9400713
0.92968696
0.92625162
0.92992426
0.94009911
0.95456027
0.96988073
0.98355287
0.9952118
1.0045953
1.0121138
1.0186188
1.0271899
1.0384661
1.0511587
1.0608599
1.0655993
1.0620228
1.0483455
1.0237229
0.99306813
0.96196297
0.93572463
0.91679282
0.90722232
0.90691445
0.91380175
0.92471762
0.9383558
0.95573005
0.97747785
1.0031269
1.0308711
1.0596014
1.0861141
1.1072001
1.1199374
1.1262349
1.1276156
1.1257379
1.1198094
1.1112094
1.0988804
1.0814437
1.0570611
1.027913
0.99737374
0.96892336
0.94439631
0.92572171
0.91419431
0.90930141
0.90963069
0.91463471
0.92624776
0.94526816
0.97128689
1.0017234
1.0352718
1.0681222
1.0965026
1.1160759
1.1283396
1.1346981
1.1373833
1.1368933
1.1354481
1.1331599
1.1285102
1.1183082
1.101619
1.0792627
1.0528678
1.0244147
0.99709704
0.97524909
0.96109443
0.95491207
0.95528732
0.96239335
0.97445433
0.98956418
1.0047466
1.0214323
1.0395551
1.0589225
1.0771507
1.0946413
1.1099532
1.1208929
1.1240025
1.1187024
1.1057062
1.0864483
1.0625445
1.0372944
1.0152194
0.99930411
0.99076206
0.98942555
0.99615694
1.0096058
1.0275413
1.0463797
1.0660231
1.0848409
1.101333
1.1123617
1.1188817
1.120458
1.1167236
1.1062333
1.0908608
1.0727202
1.0539318
1.0358886
1.0213947
1.0134123
1.0130457
1.0194334
1.0309209
1.0469617
1.0655404
1.084287
1.1003395
1.1144458
1.1261619
1.1350952
1.1387639
1.1391222
1.1363901
1.1311026
1.1225989
1.1137794
1.1067981
1.1029286
1.1014123
1.1022731
1.1048683
1.1072367
1.1067292
1.1022635
1.0954395
1.0880338
1.0819482
1.0784838
1.0805959
1.0879829
1.0981292
1.1052946
1.1074808
1.1017524
1.0872147
1.0637911
1.0375163
1.0145875
1.0006296
0.99813793
1.0090808
1.0325264
1.0646586
1.0997409
1.1334809
1.1639205
1.1896611
1.2098093
1.2239691
1.2337456
1.2387537
1.2376543
1.2276772
1.2098301
1.1840252
1.1510277
1.1108028
1.0681546
1.0270783000000001
0.99180397
0.96505518
0.95150084
0.95391057
0.97237002
1.0034836
1.0434537
1.0881578
1.1326056
1.1720892
1.2039496
1.2290703
1.2479068
1.2603962
1.2649522
1.2622936
1.251179
1.2307984
1.1998051
1.1624977
1.1225873
1.0841843
1.0494241
1.0221201
1.0039242
0.99479528
0.99256927
0.99679762
1.0074899
1.0237138
1.0436023
1.0652506
1.0860165
1.1021135
1.1105323
1.1106812
1.1051595
1.0964808
1.0868424
1.0768387
1.0674457
1.0576818
1.0476038
1.0390404
1.0372138
1.0458708
1.0654478
1.0913466
1.1165207
1.1328491
1.1356037
1.1264183
1.1141175
1.1090274
1.1158711
1.1298053
1.137839
1.1252836
1.0833875
1.0184429
0.95320858
0.92077875
0.94662467
1.0347005
1.1589669
1.2701785
1.3093316
