0.83969046
0.84491765
0.86299773
0.8654558
0.84354083
0.80941181
0.78235471
0.77444669
0.78255609
0.7928183
0.79303479
0.78309145
0.77177944
0.76727429
0.77291929
0.78360005
0.79034911
0.78831846
0.78049185
0.77348419
0.77167794
0.77641278
0.78445602
0.79054624
0.79274577
0.79236103
0.79103807
0.78905357
0.78701786
0.78547329
0.78445872
0.78832893
0.79778984
0.80879684
0.81615911
0.81544429
0.80553981
0.79131565
0.78439628
0.79290092
0.81591782
0.84624492
0.87124901
0.8798632
0.87026092
0.85143899
0.83527046
0.82848317
0.83308114
0.84153095
0.84276095
0.83153451
0.81085158
0.78886213
0.77427858
0.77408821
0.78658231
0.80251528
0.81374809
0.81449285
0.80335906
0.78467416
0.76678156
0.75556533
0.75130173
0.75371384
0.75805096
0.75838497
0.7529644
0.7440264
0.7350757
0.7291369
0.72991155
0.73624282
0.7428935
0.74711882
0.74766106
0.74521026
0.74320904
0.74633443
0.75487761
0.7634926
0.76897469
0.76801343
0.76079965
0.75409252
0.75662666
0.77236598
0.7976288
0.82500705
0.84360829
0.84496394
0.83094947
0.8095836
0.78987606
0.77829657
0.777196
0.78310777
0.78975601
0.79660322
0.80395685
0.81164548
0.81959319
0.82620185
0.82818702
0.82345253
0.81566312
0.80910829
0.80613007
0.80895635
0.81602002
0.82283693
0.82586667
0.8251406
0.82159358
0.81535978
0.80987934
0.8058964
0.8022063
0.79893576
0.79681857
0.79556518
0.79415076
0.79372936
0.79362431
0.79164858
0.7887248
0.78566787
0.78271153
0.78091241
0.78266842
0.78800647
0.79352568
0.79911487
0.80309611
0.8036559
0.80198406
0.80034514
0.79891749
0.79568652
0.79070943
0.78306047
0.77213256
0.76220918
0.75731342
0.75824671
0.76298174
0.76852788
0.77046864
0.76506424
0.75587519
0.74670654
0.73954096
0.73533006
0.73287298
0.72926126
0.72315893
0.71933459
0.72329954
0.73842221
0.76730882
0.80723683
0.85060232
0.88915423
0.91783966
0.93333173
0.93351846
0.92315039
0.90702347
0.88945452
0.87584152
0.87010635
0.87188849
0.87703271
0.88213522
0.88217132
0.87246505
0.85446769
0.83225444
0.81039149
0.79343378
0.78528018
0.78515855
0.78749914
0.78944304
0.78765858
0.78055981
0.77105969
0.76386555
0.7614501
0.76317546
0.76938394
0.77905246
0.79139247
0.80978946
0.83643039
0.86880788
0.90016321
0.92228185
0.92684116
0.90920176
0.87644218
0.83933439
0.8085523
0.79291502
0.79529762
0.81134231
0.83305469
0.85556912
0.87463766
0.8867215
0.89241933
0.8915589
0.88246091
0.86469464
0.84162761
0.818015
0.79847773
0.79081611
0.79748087
0.81432304
0.83414878
0.84871164
0.85097161
0.83861912
0.81797785
0.79701152
0.78128255
0.77529592
0.77857761
0.78680834
0.79614503
0.80585956
0.81507013
0.8208262
0.82369265
0.82195881
0.81401914
0.802612
0.79329767
0.79061858
0.79610762
0.81011352
0.82786002
0.84158281
0.8479063
0.84615472
0.83810642
0.8284429
0.82345757
0.82591441
0.83362165
0.84566394
0.85820301
0.86674637
0.8701421
0.86943359
0.86518307
0.85714367
0.8478133
0.83824437
0.82869047
0.82319011
0.82506876
0.83457811
0.84936256
0.86590780999999994
0.87810986
0.87892724
0.86897052
0.85099457
0.82920794
0.81017405
0.79943044
0.79794718
0.80258864
0.81094485
0.81862315
0.82085309
0.81796871
0.81183325
0.80439523
0.798307
0.79710704
0.80176511
0.81022675
0.82346699
0.83998269
0.85655233
0.8714596
0.88364243
0.89150296
0.89390277
0.89354831
0.89189189
0.88860171
0.88651562
0.88839968
0.89623995
0.91214889
0.93801532
0.97040112
0.9995655
1.01775
1.0170279
0.9938939
0.95423198
0.91029502
0.87373666
0.85083306
0.84382962
0.84698581
0.85025823
0.84850962
0.84052871
0.828062
0.81514222
0.80655852
0.80317588
0.80147213
0.80097119
0.80014088
0.7981241
0.7980027
0.80494411
0.82293951
0.85324055
0.89554058
0.94219636
0.97959174
0.99706493
0.98878575
0.9573551
0.91566145
0.88299127
0.87388794
0.89086183
0.9289307
0.97336264
1.0079157
1.0248359
1.0252503
1.014147
0.99599828
0.97617201
0.95532996
0.93147094
0.90767777
0.8883267
0.87586867
0.87007833
0.86905942
0.86736193
0.85825612
0.84326461
0.825973
0.81040917
0.80146445
0.80204172
0.8106003
0.82284939
0.83727566
0.85147676
0.86213525
0.86931147
0.87193598
0.86756865
0.85580901
0.84119144
0.83085709
0.83288007
0.85850175
0.9111969
0.98385057
1.0629052
1.132004
1.1771496
1.1928378
1.1867681
1.170135
1.1513716
1.1367889
1.1264076
1.1167793
1.1067487
1.0998422
1.098739
1.1008475
1.1028633
1.0962883
1.0727127
1.0316709
0.98113651
0.93265163
0.89616753
0.87875062
0.87752518
0.88145205
0.88127969
0.87132266
0.85192958
0.83063995
0.81927967
0.82535987
0.84757795
0.88163813
0.91742599
0.94436284
0.95842328
0.96151686
0.95729709
0.94852865
0.9393365
0.9293588
0.91585935
0.90171353
0.89114434
0.88775326
0.89433295
0.91188691
0.93566386
0.9566796
0.97149501
0.97806843
0.9775863
0.9760708
0.97877541
0.98498931
0.98836225
0.98364875
0.96686768
0.93909261
0.91043069
0.89132454
0.88571585
0.88967909
0.89501234
0.89336608
0.88247377
0.87306363
0.87784516
0.90337965
0.94701825
0.9962408
1.0342834
1.0497219
1.0446935
1.0274753
1.0054888
0.98406421
0.96140471
0.93212024
0.89483652
0.8561117
0.82483224
0.8061988
0.80390832
0.81335237
0.82572265
0.83554951
0.8412703
0.84248586
0.83855214
0.83099794
0.81933399
0.80288567
0.78630421
0.77405739
0.76725433
0.76397006
0.76145247
0.75624175
0.74686496
0.74038806
0.74382672
0.76060501
0.79037178
0.8275739
0.86282025
0.8879133
0.90229139
0.908139
0.90817747
0.90787521
0.90930157
0.91060706
0.90945031
0.90573101
0.89921469
0.88875769
0.87788149
0.86772791
0.85717627
0.84647232
0.83716892
0.83073138
0.82862882
0.83432447
0.84667275
0.85924779
0.8663112
0.86282551
0.84731088
0.82440926
0.80332549
0.79022385
0.78399395
0.78206329
0.77914133
0.77289184
0.76877569
0.77600506
0.79941732
0.83476873
0.87211169
0.89732933
0.90055628
0.88610954
0.86746269
0.85956291
0.87196787
0.90464644
0.94614391
0.97934955
0.99471262
0.98863903
0.96406661
0.92996545
0.89567464
0.86616043
0.84199152
0.82426994
0.8114962
0.80074109
0.79262959
0.78780264
0.78604601
0.78754993
0.79336238
0.80153937
0.80669999
0.8074432
0.8024768
0.79235316
0.78198033
0.77714003
0.77936777
0.78500923
0.79023482
0.79055331
0.7841606
0.77680664
0.77451879
0.77838879
0.78455445
0.78838241
0.78721646
0.78374068
0.79031536
0.81489971
0.85377339
0.89306746
0.91455597
0.90629202
0.87226558
0.83407102
0.81434271
0.82242629
0.85206687
0.88405681
0.90016247
0.89710951
0.8887686
0.89264411
0.9148067
0.94777343
0.97025481
0.96211373
0.9204058
0.86125365
0.80936324
0.78408235
0.79192186
0.82193558
0.85425577
0.87528848
0.8809525
0.87532587
0.86638014
0.86091382
0.85898213
0.85476316
0.84613369
0.83198173
0.8133575
0.79515078
0.78256689
0.77705503
0.77612092
0.77823331
0.7795872
0.77609224
0.76895309
0.76064275
0.75265043
0.74579445
0.74090066
0.7365305
0.72971043
0.72337147
0.71935914
0.71750989
0.71808911
0.72069888
0.72364894
0.72609057
0.73179774
0.74313264
0.75905291
0.77864368
0.79856871
0.81482468
0.82669124
0.83820772
0.85360425
0.87412015
0.90171044
0.9326092
0.95937208
0.97625918
0.98033873
0.97093871
0.94995528
0.92381077
0.89758619
0.87394246
0.85735169
0.85128532
0.857767
0.87816871
0.91270136
0.95548419
0.9938621
1.0173635
1.0171765
0.99119831
0.94784377
0.90154445
0.86443853
0.84108408
0.83077381
0.82633544
0.81934971
0.80921215
0.7998563
0.79534152
0.79732261
0.80468231
0.81217148
0.81344635
0.80973919
0.80355128
0.79666556
0.7909416
0.78666395
0.78273542
0.77978016000000006
0.78430269
0.80104031
0.82938887
0.86583421
0.90148489
0.92574285
0.93257873
0.92358398
0.90386568
0.87849312
0.85629568
0.8429368
0.84207604
0.85840499
0.89394074
0.94343961
0.99441539
1.0337511
1.0491017
1.0347714
0.99826108
0.95332431
0.91247337
0.88280705
0.86591008
0.85759814
0.85210769
0.85096923
0.85629563
0.86782358
0.88283499
0.89511274
0.89645252
0.88165214
0.8547258
0.8235002
0.79551929
0.7787623
0.77555336
0.78203591
0.79266375
0.80473006
0.81697256
0.82865041
0.84311406
0.85879915
0.86911317
0.86814139
0.85442772
0.83307578
0.81591056
0.81904931
0.84913872
0.8973755
0.94603518
0.9738338
0.96793777
0.93310577
0.88945097
0.85782003
0.84692748
0.85391978
0.86441232
0.86520118
0.85705355
0.85364665
0.87016737
0.9114941
0.96936055
1.02158
1.0441932
1.0278842
0.97964781
0.91800917
0.86450307
0.83489252
0.83195484
0.84664829
0.8689746
0.88783806
0.89496641
0.88872763
0.87211813
0.8496777
0.82622757
0.80780509
0.79557747
0.78559998
0.77474175
0.7602574
0.74214821
0.72578603
0.72050653
0.73265634
0.76155666
0.8035209
0.847707
0.88072965
0.89401012
0.88547958
0.85853891
0.82081437
0.78395663
0.75586007
0.7385101
0.73270475
0.73530996
0.74105178
0.74631783
0.75079363
0.7540301
0.75427427
0.75341198
0.75122511
0.74635512
0.73970264
0.73309339
0.72724037
0.72190085
0.71889285
0.71772771
0.71615481
0.71505204
0.71524922
0.71661816
0.71906614
0.72321024
0.72740517
0.72769666
0.72488877
0.72000721
0.71483769
0.71403208
0.7220291
0.73925278
0.76181578
0.78580464
0.80472574
0.81217201000000006
0.80813094
0.7959072
0.77989871
0.76495891
0.75596338
0.75380908
0.75497849
0.7589977
0.76390801
0.76756902
0.77048213
0.77429764
0.77941923
0.78507875
0.79277949
0.80219247
0.81126925
0.82084603
0.83165993
0.84355308
0.85659505
0.87171391
0.88726339
0.89835669
0.90365752
0.90130294
0.89046354
0.87453034
0.85927872
0.84900795
0.84536218
0.85086093
0.86495753
0.88467509
0.90940094
0.93665927
0.96066746
0.97449458
0.97355978
0.95557843
0.92195329
0.88337165
0.8507454
0.83103569
0.82693338
0.83564847
0.84962025
0.86084701
0.86707127
0.86798929
0.86392399
0.85844611
0.85409002
0.85195351
0.8539992
0.86409623
0.88381915
0.91026965
0.94137707
0.97051405
0.98944197
0.99413459
0.98532764
0.96687317
0.94454453
0.92642809
0.9156921
0.90965527
0.90595121
0.90197216
0.89697702
0.89442026
0.90046988
0.91666957
0.93651107
0.95245875
0.95387413
0.93359135
0.89487257
0.84948769
0.81063073
0.78707611
0.78336898
0.79505811
0.81216548
0.82873376
0.84157213
0.84925636
0.85202684
0.85143979
0.84690966
0.83601938
0.82237688
0.80918484
0.79862772
0.79368013
0.79586765
0.80372345
0.81450863
0.82830812
0.84299881
0.85422051
0.86052481
0.86101434
0.85632256
0.85065018
0.85093315
0.86087691
0.87839284
0.9018099
0.92651033
0.94874034
0.9697225
0.99209107
1.0146997
1.0314086
1.0364388
1.024713
0.99640231
0.96261027
0.93757653
0.93056765
0.94173117
0.96273279
0.97897793
0.97687831
0.95565523
0.92152401
0.88357222
0.85099056
0.82854555
0.81481739
0.80553719
0.80028561
0.79838495
0.79766562
0.79779263
0.79683678
0.79220048
0.78391594
0.77577956
0.770423
0.76679315
0.76625143
0.768192
0.77282246
0.78478106
0.80925143
0.84602565
0.8876638
0.92436154
0.94405984
0.93885622
0.913587
0.88034138
0.85263751
0.84118677
0.85121928
0.87936101
0.91584377
0.95442521
0.98751623
1.0073977
1.0097924
0.99383466
0.9619497
0.92108535
0.88437014
0.86193338
0.85618043
0.86496064
0.88050925
0.89369101
0.89998009
0.90166242
0.90203004
0.90086428
0.89851079
0.89149133
0.87637346
0.85540271
0.8352592
0.82195792
0.81753845
0.8224228
0.83192242
0.83956963
0.84501103
0.8507679
0.85983403
0.87431566
0.89400213
0.91325898
0.92289124
0.9205742
0.90769322
0.89026471
0.87904765
0.88278078
0.90198134
0.92872185
0.95334078
0.96535153
0.95889658
0.93905024
0.91553484
0.89675988
0.88708176
0.88686235
0.89150814
0.89472729
0.89880861
0.9075328
0.92329028
0.94611924
0.97024931
0.98355157
0.97352038
0.93819033
0.88513088
0.82975826
0.79346745
0.79033128
0.81901283
0.86407736
0.90458597
0.92173319
0.90732778
0.87228359
0.83421715
0.80789076
0.79997319
0.80610131
0.81467871
0.81622932
0.81280539
0.81306406
0.82632378
0.86040439
0.91336886
0.97397525
1.0286726
1.0685813
1.0898273
1.0928746
1.0861189
1.0759954
1.0651358
1.0553879
1.0479699
1.0431653
1.0414794
1.0464071
1.0567432
1.0652804
1.0651755
1.0502429
1.0186735
0.97629779
0.93480435
0.90243757
0.87837475
0.85897858
0.83724904
0.81087817
0.78817704
0.78265302
0.80223003
0.8422539
0.88862137
0.92152119
0.92682249
0.90764991
0.87922388
0.8589677
0.85781048
0.87597754
0.90292505
0.92479295
0.93819642
0.94500369
0.94951048
0.95647183
0.96627042
0.97402943
0.97422446
0.96793166
0.95753446
0.94428947
0.93114943
0.91749839
0.89997684
0.87702809
0.85152663
0.82645342
0.80259291
0.78417085
0.77216899
0.76574383
0.7656595
0.77256804
0.784046
0.79486066
0.8016467
0.80106385
0.79193322
0.78026296
0.77339998
0.77619559
0.79008399
0.81351949
0.84072136
0.86416589
0.88313782
0.89830103
0.91116085
0.92494297
0.94134827
0.95860251
0.97335354
0.98555189
0.99472167
1.0001346
1.0047199
1.0100571
1.015121
1.0179558
1.016996
1.0087752
0.9887515
0.95829499
0.92004039
0.87844751
0.84113573
0.81520168
0.80291173
0.80119609
0.80635941
0.81269543
0.81524649
0.81541601
0.81609521
0.81816481
0.82018147
0.82012693
0.8145007
0.80015056
0.78188322
0.7648415
0.75296505
0.74835361
0.74934125
0.75305037
0.75941128
0.771693
0.79036529
0.81043352
0.82409995
0.82257891
0.80397877
0.77827862
0.7615041
0.76390341
0.78241097
0.80446459
0.81441155
0.80763556
0.79649352
0.79900414
0.8228891
0.85775261
0.88259605
0.88279809
0.86730634
0.86838577
0.91516246
1.0043882
1.0893446
