0.9068756
0.90848774
0.94498215
0.98795347
1.011384
1.0069072
0.98361821
0.95886176
0.94695129
0.95212062
0.96731989
0.98013156
0.98273157
0.97584877
0.9664358
0.96113477
0.96404044
0.9732371
0.98282713
0.9861498
0.98241527
0.97490657
0.96867131
0.96686633
0.97106035
0.97914282
0.98672531
0.98985977
0.98801569
0.98256857
0.975218
0.96820445
0.96376897
0.96271498
0.96305406
0.96492592
0.96729917
0.96887453
0.96708464
0.96414035
0.9608323
0.95753304
0.95351921
0.95068946
0.94897313
0.94738506
0.94540047
0.94469176
0.94565871
0.9473117
0.94965991
0.95317698
0.95716827
0.95961824
0.96138669
0.96341963
0.96608062
0.96771059
0.96982834
0.97221264
0.97406659
0.97347569
0.97254667
0.97195325
0.97173574
0.97136234
0.97230944
0.97405728
0.97483323
0.97383688
0.97207564
0.96985149
0.96650005
0.96340576
0.96206684
0.96276041
0.96369301
0.96574464
0.96879952
0.97226057
0.97377638
0.97526387
0.97687299
0.9782621
0.97815982
0.97818001
0.97823749
0.97743045
0.97525683
0.97333605
0.97209391
0.97076858
0.96981695
0.97028262
0.97194364
0.97291801
0.9737996
0.9750209
0.97648978
0.97640908
0.97665612
0.977654
0.9791375
0.97918508
0.97940656
0.97953184
0.97863696
0.97564601
0.97233562
0.96919795
0.96583127
0.96266152
0.96138967
0.96221991
0.9636389
0.96577041
0.96885272
0.97223319
0.97368025
0.97428621
0.97459314
0.97483372
0.97332705
0.97248633
0.97255676
0.97300792
0.97227107
0.97181369
0.97159084
0.97099195
0.96998319
0.97062086
0.97355191
0.97795659
0.98397584
0.9921381
1.0016532
1.0101677
1.0178869
1.024916
1.0308943
1.0338669
1.0353884
1.0355545
1.0339066
1.0287634
1.0221291
1.0146535
1.0067981
0.99910543
0.99441267
0.99356582
0.99557858
0.9994139
1.0047547
1.0100342
1.0127879
1.0131529
1.0120971
1.0099831
1.0054289
0.99979476
0.99347315
0.98654176
0.9776311
0.96980303
0.96421214
0.96099579
0.95861864
0.95768184
0.95679419
0.95405071
0.94868498
0.94272983
0.93734863
0.93231479
0.92810594
0.9251827
0.92248376
0.91756117
0.91123882
0.9048498
0.89957721
0.89479355
0.89306188
0.8946893
0.89874885
0.9025728
0.90721153
0.91223493
0.91695552
0.92070837
0.92534312
0.93096884
0.93634419
0.94083435
0.94507405
0.94857067
0.94971766
0.94919381
0.94813608
0.9468617
0.9439601
0.94099686
0.93865659
0.93717475
0.93497872
0.93469853
0.93696163
0.94154808
0.94686583
0.95382161
0.96135545
0.96758436
0.9712564
0.97363199
0.97520607
0.9755986
0.97569582
0.97686581
0.97899678
0.98007566
0.98028881
0.97971003
0.97806737
0.97368888
0.96873689
0.9643005
0.96095949
0.95764679
0.95647083
0.95740629
0.95941706
0.9609949
0.96317215
0.96575035
0.96782423
0.96951437
0.9723206
0.97636386
0.98010616
0.98355224
0.98679687
0.98919654
0.98884585
0.98713778
0.98494163
0.98269396
0.97882937
0.97547917
0.97274489
0.97023212
0.96690099
0.96489131
0.96477347
0.9661175
0.96844431
0.97280896
0.97864964
0.98417376
0.98912341
0.99424816
0.99937759
1.0028121
1.0051728
1.0066441
1.0067383
1.0034543
0.99852854
0.99259699
0.98592308
0.9774109
0.96926802
0.96178143
0.95447607
0.94662104
0.93991666
0.93461027
0.92994085
0.92592175
0.92376577
0.92338622
0.92331204
0.92400603
0.92620771
0.92987601
0.93340783
0.93801368
0.94373299
0.94974567
0.95321879
0.95535866
0.95598993
0.9551853
0.95287533
0.95194793
0.95306725
0.95496714
0.95561162
0.95433488
0.94967605
0.94045612
0.92862716
0.9180667
0.91162578
0.90944573
0.91220125
0.91840348
0.92499976
0.92761026
0.92684043
0.92362015
0.91958008
0.91522527
0.91377284
0.91539802
0.91843571
0.92036174
0.92119468
0.92019447
0.91649593
0.91069446
0.90499725
0.90036341
0.8960851
0.89286711
0.8913137
0.89101522
0.88995557
0.88922123
0.8892863
0.89027839
0.89046218
0.89197681
0.89483118
0.898297
0.90071494
0.90347802
0.90657094
0.90939339
0.91176739
0.91537518
0.92034078
0.92529356
0.92986357
0.93435824
0.93818992
0.9395911
0.93952756
0.93901207
0.93855055
0.93687963
0.93586706
0.93573244
0.93592454
0.93447953
0.93291087
0.93133547
0.92957133
0.92740665
0.92693231
0.9285258
0.93115608
0.93413143
0.9378193
0.94155935
0.94376134
0.94505515
0.94664423
0.94895329
0.9505766
0.95252123
0.95471095
0.95651513
0.95568675
0.95419153
0.95253501
0.9508524
0.94832967
0.9466651
0.94569006
0.9442866
0.94167565
0.93909244
0.9366741
0.93348766
0.92988272
0.9268892
0.92449047
0.92125183
0.91816402
0.91590891
0.91437551
0.9115572
0.90874636
0.90598336
0.90311074
0.89903995
0.89640785
0.89612492
0.89806489
0.9012004
0.90628249
0.91225674
0.91711641
0.92007199
0.92224937
0.92405023
0.92465971
0.92496288
0.92572627
0.92649025
0.92501135
0.92219026
0.91853181
0.91455199
0.90927003
0.90577686
0.90497365
0.90665939
0.90912614
0.91303446
0.91723111
0.91995589
0.92025741
0.91966401
0.91888835
0.91768999
0.91699537
0.91815397
0.92115615
0.92428647
0.92799308
0.93235746
0.9367541
0.93887998
0.93995437
0.94030173
0.94029772
0.93945144
0.94075274
0.945075
0.9516949
0.95851719
0.96516398
0.96982221
0.97044299
0.96698719
0.96192878
0.95709777
0.95268131
0.94981122
0.94885766
0.9486734
0.94646039
0.94287261
0.93855229
0.93420798
0.92878621
0.92475754
0.92220864
0.9202777
0.91717434
0.9142023
0.91151839
0.90885435
0.90635138
0.90580863
0.90736706
0.90963774
0.91226147
0.91561181
0.91934578
0.92212274
0.92530454
0.93007227
0.93676235
0.94357978
0.95156544
0.96001059
0.96760514
0.97195937
0.97460082
0.9758152
0.97554217
0.97351809
0.97174946
0.97046347
0.96862987
0.96591684
0.96335366
0.96081983
0.95688508
0.95203944
0.947114
0.94223364
0.93608283
0.93037036
0.92592284
0.92277992
0.91872067
0.9151248
0.91147045
0.90699396
0.90058216
0.89444905
0.88946033
0.88554565
0.88251673
0.8816408
0.88267072
0.88421431
0.88639489
0.89035412
0.89625508
0.90256303
0.90977753
0.91783274
0.92595603
0.93188686
0.93723726
0.94256395
0.94798571
0.95207794
0.95643516
0.96051259
0.96301043
0.96263474
0.96090727
0.95831665
0.95462782
0.95044167
0.94746506
0.94593138
0.94448241
0.94341622
0.9431374
0.94313308
0.94130661
0.93865703
0.93576538
0.93318241
0.92996687
0.92914118
0.93151944
0.93663919
0.94228924
0.94851969
0.95370968
0.95585136
0.95401044
0.95017451
0.94561679
0.94037352
0.93526225
0.93131097
0.92801511
0.92320598
0.91750812
0.9119031
0.90718259
0.90245412
0.90014735
0.90079637
0.9038251
0.90681838
0.91081516
0.91520965
0.91903296
0.92138193
0.92410711
0.92767392
0.93145083
0.93532588
0.94012447
0.94513265
0.94816316
0.9491317
0.94884196
0.94812036
0.94695625
0.94858863
0.95507994
0.96694071
0.98138338
0.99833958
1.0152228
1.0291268
1.0372363
1.0410217
1.0414573
1.0392694
1.0353686
1.0319944
1.0292961
1.0256824
1.0207751
1.0153648
1.0097903
1.0033425
0.99777305
0.99422077
0.99244108
0.98967994
0.98622167
0.98123228
0.97409931
0.9638135
0.9536877
0.94562614
0.94047571
0.93784984
0.93876429
0.94197427
0.94499687
0.94654326
0.94747494
0.94823803
0.94837373
0.94924642
0.95202576
0.95644175
0.96016732
0.96364999
0.96663847
0.96874143
0.96811148
0.96726288
0.9668324
0.96688518
0.96653737
0.96768363
0.9702291
0.97300077
0.97503159
0.97724487
0.97920896
0.97942732
0.9780573
0.97634533
0.97476294
0.97245828
0.97113472
0.97197792
0.97501706
0.97790005
0.98140887
0.98474375
0.98674477
0.98529098
0.98228987
0.97824279
0.97303623
0.96607564
0.95896812
0.95168918
0.94327758
0.93384795
0.92518925
0.91811984
0.91209324
0.9081838
0.90730554
0.90912777
0.9114305
0.91496557
0.91976619
0.92551955
0.93010147
0.93544611
0.94145307
0.94737307
0.95157924
0.95558395
0.95950558
0.96289508
0.96574656
0.96989152
0.97539185
0.98055611
0.98462456
0.98756342
0.98867999
0.9865219
0.98285315
0.97954594
0.97763543
0.97575906
0.97511887
0.97481175
0.97329416
0.96823395
0.96163433
0.9546145
0.94811687
0.94273853
0.94085837
0.9425783
0.94629503
0.95078614
0.95611718
0.96140647
0.96474072
0.96638218
0.96722071
0.96760354
0.96640588
0.96555986
0.96607615
0.96809635
0.96932588
0.97119135
0.9730918
0.974074
0.97264679
0.97073133
0.96863998
0.96554891
0.9605118
0.95440408
0.94686237
0.9368055
0.92527551
0.91474278
0.90669393
0.90060761
0.8977169
0.89823326
0.90124093
0.90400121
0.9076951
0.91245744
0.91806299
0.92284219
0.92849349
0.93494392
0.94166822
0.94818606
0.95655167
0.96708636
0.97843431
0.98925019
0.99899692
1.0061113
1.0085698
1.0075047
1.0053679
1.0041853
1.0039456
1.0066532
1.0123502
1.019774
1.0254928
1.0305296
1.0344938
1.0368941
1.0365271
1.0352366
1.0331278
1.0294853
1.0240339
1.0187223
1.0142103
1.0097097
1.0052993
1.0015051
0.99758321
0.99130833
0.98322297
0.97418232
0.96482215
0.95417153
0.94474078
0.93746678
0.93241418
0.92787356
0.92547889
0.9250077
0.92557704
0.92611504
0.92822185
0.93206465
0.93677612
0.94225545
0.94961118
0.95856724
0.96738583
0.97619468
0.98524508
0.99383489
0.99962155
1.0035377
1.0060252
1.0075425
1.0070893
1.0079721
1.0111031
1.0160725
1.0207486
1.0254585
1.028791
1.0290954
1.0260339
1.0221385
1.0188529
1.0160206
1.0140708
1.013471
1.0133118
1.0114754
1.0089752
1.0071032
1.006509
1.0055059
1.0049949
1.0038345
1.0002778
0.99182772
0.98061523
0.96814807
0.95587193
0.94483464
0.93785086
0.93532308
0.93577714
0.93803417
0.94213363
0.94695502
0.9501588
0.95165664
0.95206996
0.95175082
0.95000712
0.94961783
0.95234247
0.95868255
0.96609213
0.97515859
0.98394692
0.99021193
0.99172012
0.99033522
0.98695716
0.98187855
0.97552519
0.96990682
0.96545111
0.96148319
0.95892604
0.95941767
0.96305925
0.96765547
0.9726908
0.97699042
0.97916172
0.97721608
0.97399877
0.97173163
0.97199533
0.97401792
0.97903203
0.98533072
0.99017221
0.99111889
0.98935946
0.98581709
0.9810427
0.97630121
0.97359165
0.97290344
0.97225185
0.97140389
0.97063033
0.96969002
0.9669527
0.96394219
0.96136637
0.95936209
0.95600785
0.95341413
0.95149338
0.94935562
0.94507931
0.93986894
0.93369712
0.926382
0.91865979
0.91340277
0.91168836
0.91241521
0.91477637999999994
0.91816954
0.92114905
0.92167915
0.92135934
0.92225037
0.92567749
0.9303943
0.93758251
0.94628602
0.9550224
0.96159283
0.96817241
0.97549861
0.98326526
0.99001276
0.99591
0.99947251
0.99899455
0.99499781
0.99059375
0.988043
0.98744854
0.98925735
0.99264213
0.99522888
0.99350973
0.98836311
0.98138098
0.97455927
0.96791424
0.96452921
0.96439088
0.96608999
0.96713368
0.96820345
0.96886542
0.96821756
0.96573119
0.96275729
0.95944618
0.95504613
0.9504497
0.94753813
0.94703256
0.94764151
0.94972936
0.95281614
0.95559942
0.95534631
0.95356271
0.95114637
0.94894684
0.94640602
0.94613608
0.94826409
0.95159601
0.95430966
0.95711856
0.95949834
0.96033192
0.95970874
0.95921652
0.95910277
0.95797827
0.9561208
0.95393897
0.95115298
0.94627327
0.94127493
0.9375647
0.93595954
0.93492693
0.93632448
0.93947509
0.94284458
0.94412397
0.94448865
0.9440771
0.94271603
0.9407958
0.94067188
0.94303713
0.94689011
0.95210564
0.95907046
0.96696365
0.97343307
0.9787432
0.98312071
0.98633772
0.98654965
0.98553952
0.98373554
0.98099794
0.97574659
0.96997338
0.96402079
0.95771914
0.95075204
0.94531508
0.94196957
0.93997442
0.9390852
0.94019469
0.94290413
0.94551505
0.94840524
0.95241212
0.95759615
0.96232094
0.96778097
0.97422265
0.9812872
0.98668594
0.992173
0.99765432
1.0025147
1.0052389
1.0072174
1.0082099
1.0072286
1.0037616
0.99949711
0.99504343
0.98993266
0.98502549
0.98180318
0.98040967
0.97914554
0.97858955
0.97891105
0.97959954
0.97845844
0.97712188
0.97603982
0.97528981
0.97358933
0.97312565
0.97411511
0.97585562
0.97712483000000006
0.97900606
0.98103812
0.98177518
0.98071025
0.97893985
0.97667177
0.97303167
0.96918066
0.96648367
0.96521664
0.9636821
0.96292788
0.96303999
0.9636867
0.96284162
0.96280378
0.96394031
0.96593837
0.9674005
0.96969137
0.97243548
0.9746161
0.97585829
0.97787735
0.98099583
0.98406671
0.98685288
0.98949909
0.99111144
0.98974356
0.98650935
0.98277244
0.97948592
0.97571341
0.97349497
0.97286599
0.97289658
0.97118567
0.96906225
0.96647283
0.96309147
0.9585907
0.95514786
0.95329105
0.95229672
0.95201646
0.95340543
0.95601902
0.95794431
0.95910056
0.95967705
0.95916289
0.95571512
0.95070006
0.9448857
0.93869609
0.93077674
0.92359053
0.91753268
0.91230725
0.90670914
0.90235008
0.89923687
0.89665949
0.89436131
0.89400503
0.89589109
0.89901145
0.90352857
0.91011107
0.91815704
0.92545266
0.93224667
0.93859609
0.94407874
0.94676598
0.94843393
0.94958992
0.95024453
0.94900518
0.94778592
0.94660609
0.94474626
0.94122284
0.93745699
0.93342294
0.92813188
0.92149702
0.91491814
0.9088619
0.90269381
0.89771234
0.89520518
0.8950927
0.89511066
0.8955322
0.89590575
0.89585897
0.89401277
0.89350534
0.89574008
0.90102648
0.90781811
0.91637566
0.92494892
0.93128674
0.93427567
0.93559216
0.93623423
0.93598179
0.93532197
0.93484289
0.93385128
0.93044788
0.92584882
0.92166039
0.91902169
0.91793844
0.91903994
0.92073916
0.92136347
0.92039913
0.92027734
0.9224047
0.92673271
0.93161842
0.93475603
0.93339146
0.92729084
0.92054421
0.91865783
0.92407984
0.9339106
0.9420185
0.94119937
0.92859759
0.90897477
0.89461064
0.89566423
0.9131303
0.9356738
0.94679411
0.93275998
0.89493884
0.85336841
0.83878583
0.87246343
0.94996689
1.0364589
1.0776199
