0.84544422
0.86264471
0.91021988
0.95659204
0.97747476
0.96904374
0.94536672
0.9257395
0.92430231
0.94189457
0.96792247
0.98785529
0.99478421
0.98996768
0.97961809
0.96960025
0.96310013
0.95833885
0.95056592
0.93750207
0.92075929
0.90390407
0.88880001
0.87740526
0.86923101
0.86261599
0.8559351
0.85058342
0.84845685
0.85024628
0.85555246
0.86369338
0.87325409
0.88155236
0.88977058
0.89874766
0.90884279
0.91903486
0.93095325
0.94408572
0.95676173
0.96819001
0.97959353
0.99117034
1.0014401
1.0110985
1.0203665
1.0285745
1.0330342
1.0357321
1.0368199
1.035604
1.0308619
1.023803
1.014094
1.0004812
0.98388885
0.96648372
0.94956503
0.93246326
0.91721138
0.90439558
0.89377365
0.8842478
0.87806873
0.87601334
0.87771211
0.8828564
0.891971
0.90398776
0.91630346
0.92883277
0.94174546
0.95488737
0.96632704
0.97813815
0.99036872
1.0021963
1.0125404
1.0229524
1.0335371
1.0430113
1.0515534
1.0598046
1.0670195
1.0703183
1.0704428
1.0672274
1.0601453
1.0479487
1.0334264
1.0176416
1.0005256
0.98249314
0.96536552
0.94946713
0.93361734
0.91919764
0.90751027
0.89910648
0.8924629
0.8895992
0.89032244
0.89350616
0.89776674
0.9041366
0.91242002
0.92133502
0.93113939
0.94273794
0.95602458
0.96906723
0.98309989
0.99803513
1.0127546
1.0248163
1.0352877
1.0438017
1.0495364
1.0529844
1.0565012
1.0607249
1.0638602
1.0659677
1.0663692
1.0637139
1.0552255
1.043522
1.029686
1.014151
0.9968263
0.97968379
0.96290337
0.94565117
0.92915807
0.91573307
0.90665585
0.90095307
0.8997666
0.90231845
0.9067523
0.91047059
0.91468603
0.91977037
0.92557635
0.93252289
0.94200705
0.95354926
0.9646689
0.97523366
0.98514985
0.99401398
0.9997795
1.0050795
1.010569
1.0159946
1.0205884
1.0258222
1.0310372
1.0338188
1.0334064
1.0300625
1.0235314
1.0123676
0.99928389
0.98591862
0.97283734
0.95894948
0.94605654
0.93388292
0.92134871
0.90853501
0.89749312
0.88921126
0.88306158
0.88021715
0.88109116
0.88505636
0.88963553
0.89644514
0.90552297
0.91632653
0.92800987
0.94175962
0.95697858
0.97162865
0.98527551
0.99836246
1.0105818
1.0200257
1.0282773
1.0357674
1.042098
1.0456644
1.0482646
1.0497396
1.0487335
1.0445446
1.0381574
1.0293619
1.0166612
1.0014862
0.98529542
0.96889655
0.95111659
0.93476676
0.92047493
0.90799164
0.89676017
0.88842178
0.88302407
0.87930351
0.8773495
0.87785284
0.88064219
0.88404562
0.88954521
0.89756995
0.90763985
0.91790002
0.92933553
0.94109992
0.9514469
0.95965901
0.96702005
0.97395379
0.97954293
0.98533747
0.99229315
1.0001115
1.0059752
1.011128
1.0146129
1.0148631
1.0105042
1.0032104
0.99345334
0.98072021
0.96630244
0.95210375
0.93880091
0.92516233
0.91300797
0.90288539
0.89454489
0.88673055
0.88124751
0.878265
0.87703204
0.87737288
0.88036929
0.88573752
0.89161182
0.89822958
0.90563734
0.91337716
0.91941539
0.92581264
0.93283357
0.93991106
0.94608994
0.95265375
0.95941512
0.96509427
0.97021423
0.97600475
0.98241126
0.9870937
0.99066666
0.99240121
0.99102512
0.98471323
0.97575371
0.96501662
0.95238618
0.93819893
0.92407914
0.91022408
0.89551294
0.88153683
0.86987952
0.86126904
0.85412358
0.85011174
0.8486397
0.84841317
0.84830422
0.84987854
0.8536068
0.8587298
0.86556223
0.87457348
0.88502169
0.89456331
0.90425866
0.91444403
0.9249026
0.93426841
0.94412392
0.9540647
0.96257543
0.96896552
0.97442112
0.97917827
0.98209112
0.98444937
0.98700799
0.98932525
0.98855509
0.98602767
0.98124663
0.97344284
0.96217367
0.94983781
0.93736971
0.92425562000000006
0.91113275
0.89908935
0.88832379
0.87770673
0.86938106
0.86446946
0.86297137
0.86318036
0.86571082
0.86944158
0.87275622
0.87543347
0.87937548
0.88556877
0.89317609
0.90278778
0.91400779
0.92543829
0.93409397
0.9417106
0.94883118
0.95557003
0.96163245
0.96867064
0.97628279
0.98247357
0.98687758
0.99000518
0.99142968
0.98886837
0.98347348
0.97543317
0.96460694
0.95031745
0.93581789
0.92265846
0.91095953
0.90070136
0.89262403
0.88580805
0.8780565
0.87002181
0.86284859
0.85742702
0.85285542
0.85156785
0.85366163
0.85811296
0.86352808
0.87080584
0.87965465
0.88876705
0.89837281
0.90932857
0.92147454
0.93283979
0.94462639
0.9569023
0.96889865
0.97863294
0.98752454
0.99537085
1.0011464
1.0047422
1.0078169
1.010586
1.011304
1.0103929
1.0077918
1.0026259
0.9922668
0.97883695
0.96307961
0.94554368
0.92683904
0.90991483
0.89588414
0.88410854
0.87484143
0.86861619
0.8649699
0.86204758
0.86126893
0.86325392
0.86790372
0.87388206
0.88259329
0.89373283
0.90608621
0.91914439
0.93382172
0.94955697
0.96390022
0.9765713
0.98737457
0.99617727
1.001809
1.0078808
1.0157438
1.0248302
1.0328105
1.0387396
1.040056
1.0340904
1.0217643
1.0064045
0.99090758
0.97568495
0.96296783
0.95228587
0.94172671
0.92874423
0.91515115
0.90211367
0.89026725
0.88048081
0.8742256
0.87108359
0.86907362
0.86874879
0.87089883
0.87574854
0.88137913
0.88915239
0.89834074
0.90768693
0.91624256
0.92582793
0.93679257
0.94765544
0.95771678
0.96654397
0.97310014
0.97564906
0.97700111
0.97931602
0.98341923
0.98761518
0.99217147000000006
0.99478481
0.99258701
0.98490265
0.97425999
0.96271968
0.95060718
0.93967125
0.9302088
0.92115374
0.90983388
0.89849307
0.88832048
0.88009135
0.87393843
0.87142361
0.87195536
0.8735402
0.87593167
0.8800144
0.8859452
0.89196002
0.89892486
0.90637397
0.91324308
0.91791633
0.92268387
0.92849709
0.9350722
0.94213211
0.95032481
0.95873768
0.96510719
0.97021526
0.97506325
0.97985415
0.98222899
0.98352734
0.98276482
0.97849946
0.96987988
0.95946102
0.94873663
0.93784031
0.927848
0.91974165
0.91306777
0.90580303
0.89953009
0.8952613
0.8934772
0.89336762
0.89656917
0.90251703
0.90942064
0.91620157
0.92358465
0.93148023
0.93851437
0.94553665
0.95303579
0.96066829
0.96616339
0.97151907
0.97706925
0.98252007
0.98725013
0.99289643
0.99927213
1.0045646
1.0083652
1.0109507
1.0115848
1.0077809
1.0007951
0.99118026
0.97919467
0.9643278
0.94969191
0.93640244
0.92409519
0.91254385
0.90278418
0.89462063
0.88672098
0.88044159
0.87703117
0.87672532
0.87738462
0.88018752
0.88441024
0.88909673
0.89384432
0.90100057
0.91138403
0.92385728
0.93773617
0.9521813
0.96541313
0.97483095
0.98230543
0.98953356
0.99759948
1.0057926
1.0155625
1.025673
1.03365
1.0382431
1.040583
1.0410551
1.0385225
1.0340392
1.0280043
1.0199607
1.0077919
0.99420063
0.98024013
0.96612667
0.95133677
0.93718432
0.9232633
0.90827753
0.89308735
0.87985424
0.86999142
0.8628806
0.8600142
0.8609487
0.8640361
0.86672697
0.86999358
0.8738979
0.87808526
0.88296836
0.89006019
0.8991725
0.90823689
0.91739114
0.92661725
0.93550607
0.94211063
0.94887419
0.9562162
0.96355669
0.96979911
0.97603957
0.98165115
0.98479352
0.98557073
0.9849877
0.98304312
0.97784469
0.97079021
0.96206188
0.95127763
0.93738617
0.92302298
0.90926551
0.89610549
0.88380187
0.87364174000000006
0.86540255
0.85745789
0.85063011
0.84581648
0.84334731
0.8416709
0.84268852
0.84628951
0.85160233
0.85762736
0.86565686
0.87554714
0.88576887
0.89604613
0.90666339
0.91713891
0.92568893
0.93414342
0.94338946
0.95330508
0.96207784
0.97055112
0.97744478
0.98058001
0.97906973
0.97441466
0.96749964
0.95797826
0.94795059
0.93893954
0.93124217
0.92279057
0.9154139
0.90889236
0.90231037
0.8946062
0.8871453
0.87996949
0.87211202
0.86424394
0.85791345
0.85392559
0.85149069
0.85253705
0.85750751
0.86549946
0.87400929
0.88337293
0.89264153
0.90057723
0.90725501
0.91459798
0.92313275
0.93125137
0.93903208
0.94613038
0.95191645
0.95469483
0.95772077
0.96246904
0.96895839
0.97569057
0.98244018
0.98692862
0.98612149
0.97992375
0.97042311
0.95954139
0.9473774
0.93640536
0.92698602
0.91814084
0.9079376
0.89822559
0.88990526
0.88326055
0.87891965
0.87824968
0.88073113
0.88407013
0.88821455
0.89325909
0.89896109
0.90341486
0.90849965
0.91423879
0.91994335
0.92475946
0.93021188
0.93627587
0.9414738
0.94575864
0.94997917
0.95450453
0.95846357
0.96444812
0.97335165
0.98401547
0.99268326
0.99830167
0.99847295
0.99137271
0.97799087
0.96257529
0.94835884
0.93592343
0.92640916
0.9190958
0.91195454
0.90177871
0.89083269
0.88081295
0.8731382
0.86835434
0.86798073
0.8709642
0.87469387
0.87849355
0.88328127
0.88986183
0.89754951
0.9080451
0.92088186
0.93392299
0.94375274
0.95073456
0.9549318
0.95693575
0.95898034
0.96475792
0.97553043
0.98915556
1.0041743
1.0180037
1.0276276
1.029356
1.0255872
1.018066
1.0081765
0.99652588
0.98530209
0.97431992
0.96196933
0.948651
0.93606642
0.92513449
0.9146977
0.90604858
0.89882024
0.89186537
0.88353335
0.87603519
0.87051537
0.867134
0.86601533
0.86784291
0.87156863
0.87478144
0.87796501
0.88222489
0.88851793
0.89585281
0.90660127
0.92029397
0.93494864
0.9481109
0.96014523
0.97068163
0.97886636
0.98595491
0.99382554
1.0026185
1.0096271000000001
1.0148761
1.0170234
1.0145274
1.0058553
0.99417234
0.98153776
0.96892859
0.95720973
0.94768655
0.93945957
0.92986608
0.91899114
0.90752894
0.89627396
0.88465322
0.87588077
0.8709132
0.86945912
0.87052597
0.87500524
0.88219493
0.89013758
0.89839561
0.9074538
0.91730077
0.92667791
0.93762805
0.95091998
0.96591985
0.98006711
0.99348317
1.004623
1.0116158
1.0143014
1.0149255
1.0146629
1.0126891
1.0098965
1.0062731
1.0009411
0.99154755000000006
0.98065904
0.96927131
0.95762128
0.94529849
0.93363187
0.92218628
0.90967024
0.89700138
0.88628912
0.87880236
0.87374805
0.87241741
0.87424576
0.87769304
0.88058802
0.88435388
0.88940788
0.89538386
0.90220471
0.91062818
0.91981638
0.9274841
0.9340453
0.9402126
0.94634017
0.9508419
0.9558714
0.96112813
0.96519665
0.96640262
0.96576145
0.96307726
0.95723053
0.94901468
0.93997844
0.93054992
0.91924471
0.90782209
0.89679865
0.88593386
0.87398955
0.86300382
0.85329549
0.84422536
0.83578893
0.82940568
0.82530045
0.82234804
0.82163293
0.82391008
0.82901513
0.83470088
0.84223872
0.85102959
0.85993646
0.86793713
0.87656324
0.88609359
0.89555364
0.90522926
0.91572492
0.9264732
0.93521826
0.94305649
0.9502297
0.95644905
0.96043547
0.96398126
0.96688089
0.96770734
0.96565083
0.96155951
0.95534449
0.94585725
0.9346685
0.92329791
0.91246862
0.90079505
0.8904787
0.88168263
0.87384891
0.86629874
0.86069825
0.85739559
0.85550427
0.85524498
0.85716003
0.86069923
0.86370742
0.86708279
0.87101453
0.8752262
0.87848231
0.8824475
0.88698471
0.89081611
0.89324749
0.89522643
0.89684998
0.89712028
0.89766158
0.89987728
0.90412823
0.90828497
0.91376044
0.91961658
0.92411174
0.92558706
0.92537674
0.92378723
0.92016128
0.91538714
0.91074744
0.90615613
0.89958671
0.89216112
0.88418463
0.87563845
0.8658642
0.8575575
0.85186819
0.84883137
0.84863247
0.85225579
0.85885459
0.86568747
0.87217113
0.87799229
0.88296806
0.8858797
0.8898203
0.89585199
0.90353373
0.91123136
0.91909593
0.9260132
0.9304906
0.93360147
0.93776814
0.94421718
0.95135393
0.95938322
0.9664873
0.97009001
0.96749256
0.96081265
0.95182254
0.94187578
0.93255276
0.92585913
0.92138198
0.91656306
0.91114911
0.90526632
0.89913452
0.89177997
0.88614369
0.88309412
0.88233828
0.88291693
0.88574064
0.89031856
0.89514799
0.90032119
0.90665287
0.91402109
0.92052457
0.92712515
0.93365936
0.93932712
0.94252804
0.94517166
0.94781578
0.95014268
0.95233908
0.95576511
0.96010889
0.96319266
0.96510744
0.96578779
0.96462311
0.95927275
0.9519062
0.94299159
0.93250156
0.92032553
0.90877191
0.89842754
0.88833051
0.87871249
0.87030251
0.86295028
0.85516089
0.84881142
0.84488331
0.84355306
0.84367736
0.84671921000000006
0.85225926
0.85889843
0.86600493
0.87452907
0.88425605
0.8933891
0.90225029
0.91087027
0.91874725
0.92386626
0.92865893
0.93384487
0.93929524
0.94430595
0.9501994
0.95657452
0.96179739
0.96600348
0.97011477
0.97386341
0.97481478
0.97351172
0.96938613
0.96163206
0.94923971
0.93524857
0.92138716
0.90821859
0.89624521
0.88664487
0.87894872
0.87136781
0.86478797
0.86041428
0.85895792
0.85904888
0.8624043
0.86835017
0.87520017
0.88117072
0.88720954
0.89344508
0.8991537
0.90509902
0.91244479
0.92100607
0.92855403
0.93600967
0.94340137
0.95029511
0.95535564
0.96054856
0.9658686
0.96989543
0.97152846
0.97114241
0.9680569
0.96056522
0.95012252
0.93851055
0.92695346
0.91450408
0.90390655
0.89541658
0.88824881
0.88135721
0.87615526
0.87278827
0.87032584
0.86919955
0.87027856
0.87335111
0.87658285
0.88116044
0.88738604
0.89493666
0.90243645
0.91132681
0.92125741
0.9308044
0.93915004
0.94698553
0.95394329
0.9583711
0.96120702
0.96344951
0.96561734
0.96637947
0.96845853
0.97227687
0.97695875
0.98082768
0.98434489
0.98635469
0.98466552
0.97917786
0.97104404
0.96077739
0.94732196
0.93286225
0.91846009
0.90443565
0.89009421
0.8778646
0.86843894
0.86131157
0.85619601
0.85385203
0.85361787
0.85342378
0.8536967
0.85507854
0.85789904
0.86081672
0.86626642
0.87449731
0.88459213
0.8950525
0.90660105
0.91859929
0.9294459
0.93947598
0.94995136
0.96109232
0.97103668
0.98086623
0.9901831
0.9978042
1.002308
1.0034803
1.0000681
0.99157556
0.97995578
0.96810889
0.95739848
0.94701696
0.93606671
0.92263506
0.90643626
0.89009784
0.88017188
0.88016398
0.88832998
0.89793322
0.9009872
0.8926178
0.87624906
0.86413981
0.86874597
0.89324798
0.92701699
0.95188898
0.95153692
0.92523279
0.89271961
0.88594079
0.92659636
1.0079426
1.0904932
