0.68829479
0.70456904
0.73176659
0.74183628
0.72966652
0.71075777
0.70445858
0.72053054
0.75230349
0.78395464
0.80527594
0.81680084
0.82546771
0.83774762
0.85526442
0.87385261
0.88796358
0.89684351
0.90279872
0.90730605
0.91200514
0.91620774
0.91763766
0.91601773
0.91340004
0.91140299
0.91027541
0.91035954
0.91018094
0.90650741
0.89962673
0.88906461
0.87374715
0.85687368
0.84088176
0.82589161
0.81227681
0.80039027
0.7889015
0.77659457
0.76535603
0.75584802
0.74631638
0.73844352
0.731934
0.72554446
0.72140808
0.72208111
0.72826543
0.74013154
0.75764111
0.7779116
0.796865
0.8144268
0.82989245
0.84195639
0.85310415
0.86434679
0.87462869
0.88408922
0.89310642
0.9004422
0.9049891
0.90831931
0.91050341
0.90963461
0.90806085
0.9060179
0.90213115
0.89754731
0.89309647
0.88759867
0.88012334
0.87139921
0.86092142
0.847552
0.83409447
0.82171313
0.80919305
0.79786247
0.78778118
0.77757688
0.76774129
0.75986253
0.7536694
0.74787226
0.74322295
0.73932268
0.73484188
0.73355767
0.73740596
0.74578266
0.75887488
0.77523988
0.79169853
0.80683038
0.82191344
0.8372833
0.85202801
0.86750541
0.88243416
0.89387453
0.90292374
0.91024589
0.91528445
0.91890741
0.92201909
0.92349886
0.9221704
0.91990743
0.91745535
0.91349422
0.91042427
0.90777489
0.902664
0.89451411
0.88334242
0.86871023
0.85180312
0.83591093
0.82213449
0.80904294
0.79748849
0.78648566
0.77394974
0.76209185
0.752686
0.74536175
0.740105
0.73692548
0.73456802
0.73275277
0.73479697
0.74243426
0.75407594
0.77041157
0.78890355
0.80584506
0.82150174
0.83708398
0.85244386
0.86738855
0.8820076
0.89442862
0.90266928
0.90927719
0.91556926
0.92062966
0.9255842
0.9292448
0.92892708
0.92485674
0.91940969
0.91405499
0.90950619
0.90758465
0.90717382
0.90446272
0.90008833
0.89356305
0.8835077
0.87124216
0.85810596
0.84386605
0.82884483
0.81499614
0.80252274
0.78999106
0.77889557
0.76906283
0.75881193
0.75015721
0.74424454
0.74035147
0.73880479
0.74016968
0.74331339
0.74722424
0.75361888
0.76263538
0.77228154
0.78429582
0.79807852
0.81167669
0.82590648
0.84114613
0.85584757
0.86877291
0.87971121
0.88715605
0.88963206
0.88992811
0.88956429
0.88811281
0.88769979
0.88830062
0.88777968
0.88581259
0.8833884
0.88039115
0.87653884
0.87376436
0.87183336
0.86778248
0.86255283
0.85523155
0.84360092
0.82844711
0.81136212
0.79306051
0.77508498
0.76033898
0.74913859
0.73923585
0.73089878
0.72277257
0.71264505
0.70310076
0.69676743
0.69477141
0.6989726
0.71055694
0.72780485
0.74805365
0.77080233
0.79398368
0.81393019
0.83158551
0.84662336
0.85823878
0.86884174
0.88051136
0.89300321
0.90561639
0.91795869
0.92780855
0.93270231
0.93453955
0.93437521
0.93177473
0.92923895
0.92742888
0.92486377
0.92153972
0.91846828
0.91523158
0.91094067
0.90687164
0.90235214
0.89433765
0.88402688
0.87135963
0.85533556
0.83773798
0.82056548
0.80404275
0.78840869
0.77508743
0.76365201
0.75231759
0.74271197
0.73482813
0.72693153
0.72086573
0.71762383
0.71693546
0.72041457
0.73015403
0.74593785
0.76636045
0.79119713
0.81772317
0.84126179
0.86189979
0.87865073
0.89020124
0.89855182
0.90547678
0.91088369
0.91498625
0.91885829
0.92162294
0.92143699
0.92006045
0.91777004
0.91335656
0.90909507
0.90590746
0.90268727
0.89948021
0.89679813
0.89336042
0.88751681
0.88031373
0.8714679
0.85875858
0.84439827
0.82906904
0.81203245
0.79499555
0.77965113
0.76583655
0.75348546
0.74383728
0.73625048
0.72874595
0.72299649
0.71936873
0.71689191
0.71820091
0.72441613
0.73431676
0.74754357
0.76377123
0.78096823
0.79740557
0.81427327
0.83141391
0.84677065
0.86220393
0.87721634
0.88981382
0.90082489
0.91104005
0.91976025
0.92694798
0.93379455
0.93956971
0.94241228
0.94410112
0.9448851
0.94332636
0.9411659
0.93855146
0.93342341
0.92493635
0.913354
0.89823575
0.87984204
0.86161741
0.84551664
0.83067027
0.81899622
0.80973084
0.8003224
0.79088847
0.78221859
0.77417927
0.76737614
0.76366878
0.76290748
0.76348233
0.76677518
0.77244568
0.77863558
0.78681466
0.79715168
0.80812227
0.81966607
0.83201119
0.84376168
0.85362774
0.86266932
0.87038238
0.87459854
0.87745578
0.87923522
0.8789984
0.87853596
0.87890381
0.87875372
0.87687003
0.87357389
0.86822251
0.86015279
0.85294083
0.84805219
0.84368764
0.83981744
0.83455483
0.82491329
0.81102638
0.79550619
0.77998819
0.76513123
0.75294926
0.74299755
0.73251749
0.72332791
0.71569803
0.70817824
0.70146677
0.69622257
0.69225429
0.69112804
0.6965436
0.70976319
0.72891066
0.7531127
0.7784236
0.79974337
0.81719206
0.83178677
0.84416775
0.85637462
0.86981734
0.88316718
0.89451123
0.90442956
0.91245787
0.9167354
0.91961752
0.9215657
0.92159839
0.92122934
0.92155677
0.92158107
0.92039596
0.91857936
0.91551063
0.9099861
0.90456325
0.8998491
0.89361793
0.88586936
0.87549824
0.86060907
0.84213517
0.82315638
0.80544927
0.78950436
0.77704932
0.76745922
0.7578596
0.75005662
0.7444535
0.73990052
0.73738389
0.73738665
0.73890273
0.74219913
0.74954147
0.76135815
0.77613014
0.79448907
0.81442789
0.83235391
0.84885122
0.864059
0.87694841
0.88807928
0.89823032
0.90651132
0.91228846
0.91766774
0.92308618
0.92655809
0.92977521
0.93209489
0.93160687
0.92960694
0.92755648
0.92503251
0.92151733
0.91743486
0.9114407
0.90147879
0.88970612
0.87718383
0.86310361
0.84939719
0.8365582
0.82332956
0.81011557
0.79844697
0.78825322
0.77868004
0.77089817
0.76443492
0.75709875
0.75148839
0.74870138
0.74825779
0.75167311
0.75949147
0.77013276
0.78257828
0.79719854
0.81260788
0.82632136
0.83913174
0.85030636
0.85815559
0.86504376
0.87223642
0.87902281
0.88563473
0.89217213
0.89700846
0.89896833
0.90009492
0.90120471
0.90094567
0.90166962
0.9030614
0.90290072
0.90155374
0.89939842
0.89516425
0.88804501
0.87892738
0.86741953
0.85248036
0.8370832
0.82268055
0.80842731
0.79599539
0.78549035
0.77520806
0.76516206
0.75657276
0.74924859
0.74258957
0.73833178
0.7366827
0.73611819
0.73945342
0.7473125
0.75817866
0.77212313
0.78823176
0.80398756
0.81823722
0.83199361
0.84518258
0.85685349
0.86881375
0.8806076
0.8900294
0.89832895
0.9057705
0.91121707
0.91518383
0.91860537
0.92067458
0.92048356
0.91979558
0.91886868
0.91583599
0.91277277
0.90942529
0.90360729
0.89545484
0.88516353
0.87164241
0.85480345
0.83677109
0.81848563
0.79971753
0.78337408
0.77018869
0.75831676
0.7485268
0.74030644
0.73162806
0.72248914
0.71442
0.70809666
0.70436874
0.70635107
0.71487485
0.72779065
0.74592897
0.76720619
0.78777716
0.80667062
0.82338328
0.83690729
0.84794966
0.85890891
0.87019946
0.88054312
0.89117955
0.90111733
0.9078167
0.91267438
0.91629507
0.91780855
0.91790748
0.91781161
0.91707683
0.91505963
0.91347919
0.91193397
0.90720773
0.89976048
0.8885743
0.87224291
0.8531351
0.8344143
0.81733352
0.80232993
0.79008944
0.77908922
0.76686999
0.75522123
0.74518017
0.73610568
0.73014842
0.72787909
0.72803029
0.73101354
0.7380466
0.7484795
0.76083457
0.77535938
0.79052719
0.80338536
0.81586834
0.82827906
0.8393268
0.84971623
0.85930368
0.86648643
0.87118488
0.87545675
0.87995353
0.88391715
0.88903605
0.89447785
0.89762221
0.89969594
0.9012712
0.90154139
0.90110049
0.90088349
0.89994872
0.8969878
0.89316917
0.88805081
0.87898553
0.86743618
0.8535689
0.83683913
0.81980145
0.80511999
0.79310059
0.78321777
0.77545195
0.76794059
0.75829226
0.74871319
0.74066012
0.73393067
0.73102485
0.73236844
0.73609222
0.74176208
0.74980094
0.75934366
0.76951935
0.78168802
0.79533321
0.80785662
0.82065164
0.8330668
0.84313037
0.85162593
0.85923914
0.86533376
0.87026421
0.8758321
0.88192415
0.88694935
0.89226334
0.89712033
0.89904046
0.89936293
0.89885666
0.89701964
0.8947889
0.89323119
0.890825
0.88497498
0.87574188
0.86273174
0.84500956
0.82708282
0.81184772
0.79946765
0.79064146
0.78451957
0.77814873
0.76985
0.7611309
0.7531541
0.7461723
0.74335068
0.74510889
0.74915269
0.75617485
0.76584249
0.77649402
0.78825934
0.80185137
0.81610824
0.82948216
0.84281145
0.85549072
0.86530819
0.87453387
0.88346551
0.89082185
0.89769282
0.90468896
0.91078915
0.91585021
0.92130511
0.92674502
0.93035581
0.93357041
0.93619189
0.93668128
0.93713242
0.93831861
0.93849799
0.93640106
0.931167
0.92109936
0.90573798
0.88862603
0.87235416
0.8567641
0.84438254
0.83486294
0.82606079
0.81853449
0.81296777
0.80812277
0.80270354
0.79674465
0.78953704
0.78097765
0.77561334
0.77624913
0.7824021
0.79435261
0.8091839
0.82216409
0.8316042
0.83831756
0.84299409
0.84654288
0.8512936
0.85694055
0.86096554
0.86516099
0.86966662
0.87332073
0.87724888
0.88149253
0.88390287
0.88321145
0.8803943
0.87576852
0.86932916
0.8644383
0.8616619
0.85829913
0.85386035
0.84663604
0.83435495
0.81799757
0.80067524
0.7841685
0.76907991
0.75714799
0.74758208
0.73737902
0.72810355
0.71994048
0.71159397
0.70401839
0.69802449
0.69339762
0.69140933
0.69514469
0.7053263
0.71994698
0.73841715
0.75753547
0.77307815
0.78572544
0.79656766
0.80586987
0.81507026
0.82505206
0.83434866
0.84142952
0.84766011
0.85349001
0.85768612
0.86269948
0.86828307
0.87215374
0.87452223
0.87583989
0.8755424
0.87402139
0.87311675
0.87247663
0.86976181
0.86545302
0.85849061
0.84669699
0.83213123
0.81687978000000006
0.80176112
0.78852699
0.77883146
0.77168331
0.76487257
0.75852451
0.75178659
0.74251571
0.73351321
0.72631469
0.72104566
0.71994798
0.72444939
0.73356063
0.74613132
0.7618771
0.77870061
0.79369119
0.80764531
0.82024038
0.83009608
0.83937095
0.84899923
0.85815329
0.86723298
0.87674095
0.88538496
0.89185138
0.89743999
0.90232448
0.9051262
0.90845698
0.91240457
0.91485574
0.91571058
0.9149134
0.91163483
0.90644743
0.901616
0.89703622
0.89008793
0.8805162
0.86681481
0.84736104
0.82574368
0.80580069
0.78924648
0.77723883
0.76954816
0.76318318
0.75513482
0.74631694
0.73761245
0.72854549
0.72256913
0.72042826
0.72069308
0.72413556
0.73118855
0.74051384
0.75116237
0.76329758
0.77539897
0.78532935
0.79481531
0.80418503
0.81218646
0.82065496
0.8297457
0.83779831
0.84489286
0.85187794
0.85820231
0.86330892
0.86898839
0.87514198
0.87941934
0.88359216
0.88743932
0.88929015
0.88997603
0.89005261
0.88812676
0.88307386
0.87547406
0.86486751
0.85038795
0.83522466
0.8212083
0.80796803
0.79743718
0.78974718
0.7828914
0.77622197
0.77025067
0.76444055
0.75831082
0.75394449
0.75191964
0.75081404
0.75303036
0.75885612
0.76682449
0.77743456
0.79045066
0.80381846
0.81621612
0.82799645
0.83850676
0.84674626
0.85504561
0.86375683
0.87112494
0.87812676
0.88428793000000006
0.88782318
0.88919313
0.88994854
0.89010996
0.88922613
0.88889407
0.88881076
0.88662525
0.88423625
0.88145971
0.87612975
0.86815641
0.8574558
0.84306642
0.82566883
0.80842712
0.79291588
0.77859235
0.76706158
0.75749376
0.74721418
0.73732788
0.72851338
0.71998781
0.71227766
0.70656945
0.70286078
0.70163026
0.7061349
0.71754618
0.73368683
0.75464475
0.77731808
0.79722333
0.81354159
0.82664551
0.83648955
0.84415432
0.85176748
0.85937588
0.86582288
0.87302513
0.88093334
0.88748712
0.89351218
0.89839371
0.90015752
0.89908434
0.89682994
0.89384667
0.89018688
0.88770052
0.88590642
0.88170667
0.87586456
0.86764826
0.85543237
0.84057709
0.82492197
0.80895745
0.79347249
0.78040535
0.76963512
0.75933069
0.7506303
0.74318264
0.73517332
0.72837177
0.72374584
0.72071233
0.72006866
0.72302118
0.72901299
0.73716983
0.74868051
0.76272407
0.77618131
0.78978735
0.80250366
0.81253791
0.82129949
0.83005908
0.83818264
0.84518447
0.85150222
0.85613847
0.85786599
0.85940794
0.86178524
0.86368078
0.86620143
0.86874036
0.86931623
0.8682605
0.86720439
0.86604095
0.8635176
0.8599478
0.8539373
0.84281108
0.82929224
0.81537797
0.80162704
0.79005958
0.78142351
0.77394973
0.76614525
0.75859862
0.75099713
0.74220116
0.73452793
0.72856481
0.72303879
0.7200354
0.72061437
0.72412329
0.73104489
0.74189716000000006
0.7551051
0.76869273
0.78301757
0.79715441
0.80878312
0.81985335
0.83053742
0.83969751
0.8485277
0.85762457
0.86583311
0.87264617
0.87893742
0.88422344
0.88729925
0.89027021
0.89330261
0.89454771
0.89528355
0.89594136
0.89579166
0.89577714
0.89706306
0.89796434
0.89513805
0.88747509
0.87358822
0.85228597
0.82872576
0.8070074
0.78837574
0.77401455
0.76307967
0.75256952
0.74095397
0.72986554
0.72011539
0.71087875
0.70390704
0.6989042
0.69447795
0.69371648
0.69909905
0.71062482
0.72784961
0.74889464
0.76948806
0.7861967
0.80005818
0.81251669
0.82399047
0.83832453
0.85563289
0.87293693000000006
0.88908655
0.90305585
0.91344267
0.9207779
0.92737675
0.93319488
0.93603982
0.93665835
0.93467588
0.92944691
0.92485208
0.92338667
0.92381131
0.92365362
0.91983032
0.90871084
0.88936496
0.86669612
0.84562375
0.82774731
0.81569298
0.80766127
0.79942728
0.7901711
0.78098898
0.7725451
0.76571727
0.76179826
0.75960973
0.75695791
0.75580793
0.75731598
0.76108034
0.76917496
0.78129712
0.79475993
0.80843517
0.82219314
0.8350038
0.84629544
0.85780435
0.86930233
0.87841418
0.88672508
0.89385821
0.89835671
0.9016783
0.90487284
0.90698681
0.90747733
0.90728579
0.90615613
0.90338863
0.90181877
0.90170245
0.90101329
0.89761534
0.88791307
0.87038385
0.8488439
0.82891812
0.81377474
0.80269084
0.79190762
0.77736111
0.75964135
0.74574427
0.74023797
0.74063463
0.73931961
0.72823898
0.70811313
0.69214837
0.6957414
0.72120711
0.75266579
0.76695308
0.75166238
0.72153511
0.71456147
0.76022055
0.84932354
