0.7832701
0.79320108
0.82970975
0.86831471
0.88904863
0.88759867
0.87368743
0.86139165
0.86164594
0.87556235
0.89561035
0.91112949
0.9176902
0.91703666
0.9144491
0.91457671
0.91981226
0.92822701
0.93508335
0.93756378
0.93614886
0.93323761
0.93015631
0.92900988
0.92985958
0.93125982
0.93096072
0.92898729
0.9258552
0.92175296
0.91712024
0.91318832
0.91068958
0.90849421
0.90787867
0.90893995
0.91111904
0.91307317
0.91659904
0.92198135
0.92832393
0.9348586
0.94181324
0.94819882
0.95196281
0.95382656
0.95482458
0.95551965
0.95443968
0.95353259
0.95245838
0.94997002
0.94477797
0.93842683
0.93148357
0.92355341
0.91574201
0.90952599
0.904958
0.89996122
0.89553342
0.89161176
0.88754526
0.8817907
0.87629085
0.8714418
0.86674827
0.86235053
0.85977428
0.85904113
0.85840754
0.85821472
0.85854065
0.85890737
0.85727536
0.85579627
0.85491284
0.85437597
0.85369983
0.85469417
0.85783255
0.86254653
0.8697934
0.88074445
0.89481145
0.9088325
0.92224278
0.93344067
0.94094956
0.9435912
0.9445748
0.94590957
0.9482413
0.95178375
0.95698932
0.96232377
0.96485055
0.96466451
0.96259216
0.95937896
0.95393232
0.94865347
0.94355195
0.93764233
0.92983567
0.9217963
0.91424314
0.90688565
0.90065741
0.89669154
0.89468512
0.89235517
0.89046632
0.88904969
0.88777901
0.88550069
0.8843429
0.88472668
0.88582728
0.88709638
0.88936093
0.8922176
0.89384204
0.8949394
0.89619528
0.89758977
0.89703575
0.89656733
0.89639325
0.89626276
0.89597899
0.89782502
0.90221576
0.90762577
0.91336091
0.91897141
0.92318495
0.92375758
0.92251848
0.92075001
0.91903321
0.91649873
0.91486164
0.91391933
0.91282623
0.9120101
0.91379737
0.91923165
0.92721669
0.93778729
0.94980674
0.96116189
0.96848526
0.97321059
0.97601411
0.97747803
0.97792642
0.97935023
0.98159717
0.98280711
0.98252494
0.98127344
0.97908778
0.97464741
0.96979895
0.96509261
0.95997508
0.95255972
0.94414776
0.93478172
0.9241252
0.9129574
0.90364148
0.89691089
0.89127022
0.88684194
0.88322635
0.87959473
0.87395145
0.86896887
0.86565987
0.86390464
0.86252741
0.86189543
0.86077365
0.85737555
0.8525851
0.84897565
0.8485132
0.85091014
0.85784873
0.86858178
0.88085774
0.89142039
0.90091088
0.90902658
0.91501074
0.91892944
0.92218668
0.92465844
0.92467534
0.92328979
0.92165399
0.92036068
0.91795514
0.91683405
0.91704895
0.91765911
0.91743341
0.91761475
0.91807321
0.91752534
0.91615071
0.91476122
0.91324144
0.90995473
0.90647484
0.9035099
0.9011329
0.8983203
0.89686311
0.89670385
0.89665374
0.89608937
0.89601978
0.89662395
0.8970038
0.89866802
0.90286377
0.90972683
0.91687406
0.92533225
0.9340674
0.94149301
0.94625877
0.9499516
0.95306626
0.95491114
0.9560556
0.95733145
0.95825256
0.95652116
0.95320875
0.9486703
0.94287345
0.93489068
0.92698558
0.91954768
0.91177807
0.90343167
0.89588327
0.88952477
0.88353189
0.87947798
0.87849832
0.88050953
0.88298005
0.8868827
0.89134092
0.89522994
0.89791271
0.90157611
0.90713572
0.9139557
0.92210872
0.93148465
0.94055695
0.94621431
0.94902325
0.94930658
0.94739501
0.94296242
0.93890171
0.93610419
0.93406206
0.93259601
0.93284057
0.93452019
0.93574236
0.93699515
0.93851055
0.93978664
0.93845079
0.93644112
0.93397954
0.93075498
0.92630844
0.92252957
0.91960403
0.91616117
0.91205593
0.90778931
0.90306581
0.89621508
0.88913212
0.88300148
0.87833488
0.87432679
0.87297089
0.87422289
0.8768419
0.88018284
0.88518119
0.89166759
0.89807123
0.90512196
0.91319864
0.92188485
0.92891156
0.93599436
0.94296471
0.94896934
0.95300118
0.9564009
0.95913511
0.96010307
0.95989967
0.95985779
0.96029605
0.95970421
0.95954364
0.96003784
0.9606779
0.96003151
0.95995287
0.96062051
0.96110008
0.96087766
0.96076096
0.96027101
0.95758649
0.95344573
0.94862672
0.94331197
0.93577797
0.92816581
0.92076416
0.91321054
0.90498816
0.89790171
0.89226575
0.88704915
0.88253611
0.87961646
0.8783737
0.87749047
0.87884633
0.88310629
0.88979283
0.89681627
0.90442843
0.91082698
0.91350706
0.91152416
0.90653311
0.90027021
0.89397475
0.89113127
0.89383686
0.90175659
0.91106172
0.92079052
0.92823277
0.93126694
0.92947467
0.92635386
0.92440408
0.9241113
0.92596553
0.92954473
0.9325802
0.93133468
0.92658449
0.91948553
0.91141801
0.90270095
0.89608966
0.89146445
0.88679552
0.88039377
0.87252361
0.86312594
0.85155381
0.83988185
0.82989212
0.82209157
0.81439283
0.80804469
0.80238189
0.7964722
0.78993924
0.78537708
0.78431912
0.78701775
0.79458039
0.80783672
0.82586626
0.84566273
0.86702282
0.88878999
0.90937692
0.92654037
0.94132869
0.95341142
0.96185031
0.96669019
0.96956366
0.97089807
0.96953757
0.96642237
0.96210453
0.95650039
0.94795861
0.93917969
0.93128687
0.92469903
0.91924993
0.91644942
0.91566735
0.91455345
0.91209574
0.90834138
0.9030716
0.89510394
0.88667762
0.87909504
0.87256059
0.86560182
0.85920866
0.85273846
0.84499971
0.83599835
0.82784839
0.82200602
0.81846593
0.81868172
0.82291956
0.82982273
0.8357201
0.84096276
0.84495084
0.84762764
0.8497943
0.85475074
0.8635717
0.87473099
0.88688442
0.89859658
0.90783153
0.91216271
0.91397389
0.91553222
0.91828112
0.92150938
0.92638319
0.93139267
0.9339773
0.93302453
0.93012546
0.92636159
0.92125201
0.91592928
0.91049042
0.9039163
0.89366506
0.88205017
0.87058455
0.86061143
0.85296729
0.84978864
0.85068859
0.85326653
0.85619499
0.85908918
0.86132757
0.86139204
0.86116337
0.86176746
0.86360945
0.86588075
0.87045808
0.87739505
0.88562759
0.89459756
0.90514982
0.91696095
0.9282077
0.93930996
0.95034498
0.96052336
0.96706279
0.97135809
0.97324281
0.97227035
0.96816276
0.96323448
0.95815366
0.95193369
0.94469087
0.93702416
0.92867103
0.91804949
0.90725654
0.89761603
0.88961065
0.88219135
0.87694862
0.87355322
0.87074233
0.86805656
0.8667078
0.86670283
0.86637157
0.8659938
0.86572875
0.86558321
0.86460359
0.86613778
0.8717375
0.8814764
0.89393568
0.90862416
0.92309321
0.93412826
0.94115479
0.9455109
0.94848654
0.94982587
0.95192656
0.9551948
0.95860748
0.95988344
0.96040349
0.96036462
0.9594116
0.95794123
0.95757012
0.95801728
0.95690645
0.95413374
0.94976732
0.94380585
0.93490717
0.92619369
0.91870045
0.9120324
0.9046696
0.89705326
0.8883411
0.87722583
0.8648565
0.85382764
0.84582781
0.84016373
0.8380931
0.83893569
0.84101632
0.84209861
0.84399763
0.84784162
0.85419397
0.86385059
0.87794064
0.89516269
0.91199585
0.92717859
0.93982761
0.94943752
0.95474484
0.95914456
0.96416581
0.97014707
0.97650117
0.98427684
0.99258634
0.99926673
1.0040235
1.0076273
1.0101204
1.0098092
1.0080363
1.0047528
0.99903557
0.98908626
0.97690922
0.96357556
0.94978175
0.93696241
0.92757978
0.92185803
0.91737424
0.91307744
0.90766295
0.89985446
0.88779994
0.87474024
0.8629539
0.85401279
0.84846948
0.84792596
0.85160057
0.85704732
0.86337362
0.87072858
0.87875412
0.88563197
0.8927483
0.90032339
0.90788129
0.91402789
0.92086215
0.92863632
0.93617053
0.94247917
0.94789561
0.95154831
0.95157198
0.94945682
0.94703778
0.94543259
0.94323791
0.94257622
0.94286794
0.94255776
0.94010933
0.93690137
0.93319551
0.92815579
0.92226444
0.91634138
0.91008727
0.90170449
0.89291561
0.88488851
0.87838738
0.87310275
0.87130568
0.87311993
0.87728239
0.88297063
0.89098148
0.90131854
0.91283945
0.92659646
0.94299718
0.96103737
0.97713847
0.99122109
1.0014941
1.0062085
1.0046134
0.9996002
0.99348311
0.98748035
0.98360887
0.98305899
0.9843353
0.98305921
0.97796026
0.96783831
0.95281988
0.9340806
0.91706728
0.90509202
0.89868664
0.89662394
0.89720427
0.89711599
0.89288554
0.88554765
0.87789261
0.87272431
0.87013342
0.87225407
0.87759021
0.88309961
0.88595113
0.88705579
0.88727001
0.88685397
0.88736774
0.8903794
0.89578777
0.90134774
0.90820526
0.91637419
0.924762
0.93056733
0.9342466
0.93480198
0.93125873
0.92462759
0.91831151
0.91392118
0.90998466
0.9059277
0.90022053
0.89130268
0.87755483
0.8637389
0.85371075
0.84990847
0.85238749
0.86117945
0.87337349
0.88496856
0.89491555
0.90461376
0.91544171
0.92672318
0.93957785
0.95284984
0.96430513
0.97142684
0.97631101
0.98064668
0.98542375
0.99147508
0.99989307
1.0095436
1.0175468
1.0239107
1.029308
1.0341964
1.0369327
1.0394415
1.0411845
1.0407628
1.0369332
1.0315943
1.025637
1.018713
1.0115873
1.0051893
0.99907869
0.99107128
0.98248432
0.97402793
0.96594013
0.95732574
0.9501993
0.94470206
0.93982913
0.93516431
0.93193749
0.93026961
0.92877139
0.92835334
0.92964876
0.93250215
0.93476131
0.93845957
0.9436297
0.9494562
0.9547583
0.96075691
0.96700239
0.97168743
0.97482592
0.97745523
0.97983405
0.98049038
0.98154757
0.98367121
0.9862544
0.98703137
0.98710331
0.98581764
0.98196706
0.97572762
0.96940309
0.96402444
0.95873556
0.95470804
0.95248837
0.95177386
0.95048148
0.9508975
0.95328318
0.95677927
0.95976755
0.9626861
0.96464349
0.96423262
0.96258944
0.9623088
0.96509782
0.97026684
0.97921213
0.99118924
1.0042037
1.0153665
1.0257198
1.035253
1.0432583
1.0495453
1.0550155
1.058898
1.0588796
1.0554948
1.0496285
1.0419424
1.0314102
1.0210718
1.0116941
1.0030036
0.99430218
0.98706574
0.98102547
0.97453959
0.96751416
0.96068666
0.9542592
0.94728979
0.94231356
0.94055262
0.94178506
0.94381075
0.94684442
0.94925456
0.94905018
0.94604117
0.94257539
0.94016008
0.93842603
0.93863157
0.94095215
0.94434713
0.94579127
0.94704085
0.94816558
0.94850892
0.94698239
0.94486081
0.94190524
0.93706636
0.93163647
0.92781052
0.92622182
0.92465069
0.92336424
0.92106233
0.91629342
0.90786071
0.8993112
0.89288261
0.88915168
0.88792642
0.88910806
0.89070917
0.88986646
0.88755228
0.88592592
0.88703287
0.89056342
0.89892268
0.91130217
0.92550469
0.93930058
0.95341297
0.96762587
0.98058096
0.99204122
1.0018706
1.0087878
1.0102962
1.0080069
1.0034108
0.99784562
0.99155477
0.98732869
0.98541638
0.98443594
0.98339505
0.98284586
0.98231522
0.98009863
0.9769276
0.97334191
0.96922543
0.96275207
0.95604567
0.94939732
0.94236397
0.93423203
0.92645288
0.91912759
0.91135068
0.9038928
0.89826626
0.89493427
0.89234769
0.89175887
0.89311916
0.89550954
0.89687725
0.89852502
0.90009777
0.90024616
0.89841963
0.89597417
0.89338911
0.88999786
0.88790124
0.8887457
0.89273096
0.89711254
0.90253001
0.90715076
0.90861582
0.90520347
0.89876179
0.89059687
0.88128412
0.87283691
0.86717332
0.86426313
0.86172601
0.86023375
0.85982549
0.86071612
0.8629233
0.86973115
0.88199761
0.89823251
0.91614273
0.93407658
0.9494858
0.95975611
0.96627595
0.97148932
0.97732969
0.98292428
0.98986356
0.99669242
1.0009399
1.0005833
0.99714394
0.99175393
0.98472319
0.97751119
0.97153014
0.96657625
0.96047368
0.95434988
0.94859898
0.94300778
0.93608314
0.92902616
0.92106995
0.9106563
0.89756472
0.8840887
0.87223228
0.86285429
0.85846432
0.86004127
0.86620741
0.87235302
0.87755003
0.87993477
0.87862672
0.87432407
0.87153893
0.87328039
0.87982008
0.89087176
0.90494531
0.91848555
0.92640516
0.92894564
0.92751773
0.92450786
0.92152627
0.92294818
0.92925332
0.93763176
0.94449928
0.94790091
0.94592119
0.93728723
0.92528214
0.9140004
0.90631018
0.90146441
0.90078873
0.90234625
0.90350034
0.90268817
0.90246778
0.90527352
0.91252929
0.92598308
0.94620235
0.97116627
0.99641847
1.0204624
1.041513
1.0581055
1.0688009
1.0759554
1.0811377
1.0855975
1.0913082
1.1009151
1.114115
1.1268755
1.1358585
1.1373982
1.1288697
1.1087661
1.0827663
1.0562623
1.033327
1.0153642
1.0032876
0.99438911
0.98429797
0.97152861
0.9573593
0.94353991
0.9302245
0.91991999
0.9126549
0.90659979
0.89846932
0.88899278
0.87808638
0.86531267
0.8511255
0.83772452
0.82617184
0.81623723
0.81059559
0.81176483
0.82084009
0.83548076
0.85622537
0.8802329
0.90352447
0.92257616
0.93768171
0.94879365
0.95552122
0.95972807
0.96389839
0.96912568
0.97431307
0.98146542
0.99064109
1.0004774
1.0081706
1.0143521
1.0184326
1.0198513
1.019778
1.0213744
1.0261038
1.0327723
1.0411854
1.0499239
1.0566913
1.0580409
1.0559513
1.051801
1.046861
1.0418438
1.038862
1.03742
1.0349889
1.0303156
1.0234809
1.014655
1.0032535
0.99216816
0.98318671
0.97667614
0.97094517
0.96675342
0.9629101
0.95749933
0.94997535
0.94217586
0.93517978
0.92854129
0.92394213
0.92225586
0.92301916
0.92335539
0.92482799
0.92721553
0.92983322
0.93195957
0.93551934
0.94063158
0.94578507
0.95091635
0.95653535
0.96198272
0.96472047
0.9659028
0.96568451
0.96374156
0.95895684
0.95403541
0.94986697
0.94615139
0.94307183000000006
0.94216181
0.94337909
0.94501151
0.94789326
0.95257897
0.95874286
0.96393098
0.96984609
0.97628378
0.98254739
0.98801063
0.99460873
1.0025979
1.0105819
1.0182702
1.025828
1.0325324
1.0363122
1.0388143
1.0408942
1.0425664
1.0423265
1.041567
1.039814
1.0358286
1.0296014
1.0233316
1.0181979
1.0135612
1.0106242
1.0096522000000001
1.0096487
1.0075238
1.0047943
1.0015406
0.99754784
0.99251369
0.98846937
0.98552888
0.98212341
0.97804229
0.97387462
0.96952439
0.96353104999999994
0.95806902
0.9542833
0.95250078
0.95231114
0.953768
0.95517762
0.95518719
0.95486714
0.95644935
0.96086775
0.96695953
0.97346991
0.97777962
0.97858996
0.97734901
0.97984593
0.98894096
1.0026593
1.0145839
1.0174896
1.0071726
0.98760393
0.97163178
0.97197307
0.99167275
1.0196671
1.0375027000000001
1.0283287
0.99096609
0.94506098
0.92316266
0.94803448
1.0145051
1.0849379
