0.89917617
1.0158981
1.086245
1.0922072
1.0614845
1.0322865
1.0215039
1.0150809
0.98949424
0.93926163
0.87812205
0.825228
0.79140107
0.7711705
0.75168072
0.72607398
0.69584037
0.66878455
0.6524959
0.64614436
0.64312891
0.63887973
0.63612788
0.64709607
0.68408189
0.74472747
0.81234934
0.86230895
0.87870064
0.87047558
0.86011932
0.86535184
0.8925698
0.92849933
0.95326402
0.96013143
0.95116091
0.93332406
0.91521504
0.89667371
0.873967
0.84794471
0.81906701
0.78838416
0.75865614
0.72912109
0.70003804
0.6749778
0.65484985
0.63977539
0.6297097
0.6222954
0.61794743
0.61897436
0.62569819
0.64041812
0.66623435
0.70475109
0.75834845
0.82207534
0.88052155
0.91817365
0.92448051
0.90115747
0.86837679
0.8485197
0.85224259
0.87932672
0.91467857
0.94036476
0.95257217
0.9549645
0.95335475
0.95313975
0.95004045
0.93575758
0.90795322
0.86757086
0.81995376
0.77443197
0.73647034
0.70881187
0.69246319
0.68279658
0.67456063
0.66563542
0.65614999
0.65126192
0.6559235
0.66820423
0.68492542
0.70518536
0.73339252
0.78180951
0.85601021
0.94362641
1.0206441
1.0605716
1.0511248
1.0082333
0.96101895
0.93210648
0.93066863
0.94408959
0.9511851
0.94288826
0.92007277
0.89030946
0.86394515
0.84235102
0.82124475
0.79940648
0.77591956
0.7519549
0.73107925
0.71243769
0.69374967
0.6744875
0.65344245
0.6325189
0.61616922
0.60643293
0.60525593
0.613113
0.62751105
0.64969434
0.68299912
0.72897015
0.7886653
0.85414062
0.9079426
0.93618484
0.93314458
0.90604662
0.87795947
0.86922093
0.88427548
0.91545705
0.94317233
0.95021296
0.93611795
0.90872306
0.87685642
0.84781238
0.820309
0.79079227
0.76163315
0.73545602
0.71396581
0.69803518
0.68386947
0.66882801
0.65499762
0.64446427
0.63940487
0.64016306
0.64272885
0.64547948
0.65110706
0.66390366
0.69045519
0.73142461
0.77659465
0.81331495
0.83062281
0.82579988
0.81170096
0.80509842
0.81491058
0.8422625
0.87616334
0.90137303
0.91327932
0.91216554
0.90034666
0.88306633
0.8602911
0.83016563
0.79663227
0.76376808
0.73503271
0.71418092
0.69914196
0.685932
0.67380389
0.66240855
0.65367223
0.65054059
0.65115217
0.65220133
0.6517995
0.64956033
0.65100044
0.66304607
0.68633086
0.71702937
0.74657874
0.76550224
0.77333691
0.77531321
0.77663009
0.78360393
0.7973744
0.81439839
0.83490951
0.85649819
0.87225357
0.87832061
0.86970949
0.84489204
0.81241456
0.78076927
0.7542111
0.7348957
0.71881717999999994
0.70156264
0.68452059
0.66922421
0.65698305
0.64951973
0.64520045
0.64305988
0.64422737
0.64712161
0.64991366
0.65173397
0.65185668
0.65469705
0.66666821
0.68942539
0.72130989
0.75565393
0.78278982
0.79975987
0.80884168
0.81406353
0.82277925
0.83741176
0.85336477
0.86685363
0.87185301
0.86249495
0.84139431
0.81293737
0.78220162
0.7573143
0.74076883
0.72967314
0.72153167
0.71198883
0.6989511
0.68607195
0.67609741
0.67037952
0.6696999
0.67074097
0.67051478
0.66887906
0.66529736
0.6613831
0.66000399
0.66155169
0.66740102
0.67829593
0.69154341
0.70573541
0.71903914
0.72823602
0.73454199
0.73981425
0.74397141
0.74934391
0.75522947
0.75749597
0.75628857
0.75177163
0.74387217
0.73729174
0.733318
0.72936187
0.7245974
0.71587274
0.70085034
0.683314
0.6669701
0.65482436
0.65007928
0.6501624
0.65014389
0.64789593
0.64242784
0.63658727
0.63519244
0.63775231
0.64100826
0.64229495
0.64084585
0.64273105
0.65535863
0.67804615
0.70372453
0.72138942
0.72270909
0.71244308
0.70251951
0.70173448
0.71393227
0.73360858
0.7507815
0.76294656
0.77084055
0.7741792
0.77447553
0.7693714
0.75665131
0.74126391
0.72770365
0.71711235
0.70974853
0.70208986
0.69226653
0.6846744
0.68264612
0.68644138
0.69379098
0.69798448
0.69473481
0.68598501
0.67530611
0.66792363
0.66796997
0.67422644
0.68483015
0.69763112
0.70842689
0.7158618
0.71973027
0.7188786
0.71616457
0.71467845
0.71481537
0.71894201
0.72668361
0.73415266
0.7409785
0.74573948
0.74581598
0.74384167
0.74090272
0.73651796
0.7331732
0.73029368
0.7258292
0.72119289
0.71666411
0.712792
0.71219281
0.71355805
0.71388972
0.71209754
0.70702547
0.70111359
0.69994009
0.70554221
0.71726153
0.73181538
0.74282516
0.74775073
0.74807202
0.74549385
0.74379297
0.74485263
0.74623657
0.74731086
0.74740917
0.74447321
0.74037676
0.73606105
0.72991941
0.72384755
0.71820727
0.7112554
0.70547207
0.70076663
0.6948835
0.68908742
0.68286899
0.67553657
0.6700782
0.66661899
0.66341379
0.66042593
0.65594011
0.6500861
0.64655644
0.6467826
0.65140558
0.66119414
0.67449096
0.69137495
0.7125424
0.73437488
0.75245424
0.7624823
0.76109799
0.75232426
0.74380379
0.74028558
0.74482973
0.75501706
0.76379476
0.76868392
0.76940625
0.76558552
0.76071612
0.75550145
0.74700473
0.7366266
0.72454202
0.71008782
0.69688716
0.68626376
0.67775268
0.67300692
0.67038483
0.66702113
0.66313153
0.65831276
0.65376102
0.65318531
0.65713496
0.66501506
0.67649188
0.68892664
0.70176788
0.71628468
0.73142026
0.74693132
0.76215547
0.77424841
0.78399649
0.79422778
0.80659709
0.82394162
0.84433447
0.85912161
0.86186748
0.84925973
0.82312326
0.79478285
0.77372144
0.76062984
0.75286083
0.74261112
0.72404751
0.70207259
0.68408591
0.67502314
0.67696855
0.68397851
0.68797042
0.68671518
0.68094657
0.67437261
0.67162525
0.67155595
0.67097805
0.66905994
0.66654294
0.66865958
0.6807331
0.70051993
0.72179246
0.73764622
0.74419289
0.74770757
0.75766077
0.77654395
0.80065637
0.81939994
0.82188976
0.80951567
0.79112354
0.7748602
0.7668712
0.76399775
0.75721122
0.74407944
0.72553993
0.70479290000000006
0.68854842
0.67856849
0.67266984
0.67034138
0.66905244
0.66651995
0.66372385
0.65999606
0.65521951
0.65198946
0.65133536
0.65507643
0.66607112
0.68338579
0.7048884
0.72731593
0.74445729
0.75341185
0.75504047
0.75107909
0.74715056
0.7478033
0.7522802
0.75933493
0.7651058
0.7637418
0.7552426
0.74211085
0.72718892
0.71703553
0.71404003
0.71461919
0.71671518
0.71649538
0.7112543
0.70480258
0.69995917
0.69709702
0.69704822
0.69687761
0.69371785
0.68952554
0.68636908
0.68676044
0.69334765
0.70383079
0.71449303
0.72284017
0.72580644
0.72394944
0.72055979
0.71692804
0.71521326
0.71689908
0.71992198
0.72424735
0.73004374
0.734659
0.73797607
0.73966394
0.73788544
0.73521816
0.73370959
0.73218245
0.73143338
0.72972918
0.72350789
0.71435941
0.70247733
0.68656701
0.66919038
0.65207328
0.63755741
0.6310439
0.63299761
0.63971444
0.64906568
0.66013916
0.67752552
0.70987196
0.75842461
0.81508518
0.86557461
0.8939422
0.89452319
0.87429096
0.84429729
0.81566816
0.79369967
0.77551826
0.75923085
0.74523324
0.73332191
0.7261242
0.7242585
0.72414777
0.72549085
0.72777963
0.72848871
0.72884195
0.72852005
0.7254004
0.72192705
0.71883215
0.71507145
0.71234732
0.71018468
0.70741598000000006
0.7059545
0.70557949
0.70563089
0.70822242
0.71433638
0.72629254
0.74778453
0.77757607
0.81201114
0.84656824
0.87479372
0.89434686
0.90690893
0.9132323
0.91473248
0.91118639
0.89870591
0.87652289
0.84637675
0.80969156
0.77161763
0.73709092
0.70843904
0.68993414
0.68171087
0.67734371
0.67174712
0.66046914
0.64264102
0.62638487
0.61707833
0.6129088
0.61060347
0.60557035
0.59819393
0.5961516
0.60170936
0.60875277
0.61033357
0.60479836
0.60452765
0.63005229
0.6881786
0.76369092
0.8261552
0.84735808
0.82497175
0.78320653
0.7512753
0.74596926
0.76195718
0.77862509
0.78212821
0.77281941
0.75867056
0.7494048
0.74691896
0.74528875000000006
0.74188457
0.73662218
0.72903156
0.72098838
0.71199848
0.70057154
0.69101783
0.68572192
0.68256465
0.67969679
0.67390212
0.66504163
0.65936782
0.66023433
0.66592142
0.67391027
0.68150497
0.69173098
0.71233295
0.74390486
0.7781618
0.80190289
0.80284103
0.78183546
0.75278918
0.72991048
0.72161888
0.72581534
0.73129239
0.73104697
0.72513741
0.71647182
0.71087588
0.71007103
0.70984033
0.70845698
0.70516631
0.69929884
0.69460405
0.69246685
0.69049426
0.68931778
0.68791011
0.68483222
0.68253814
0.68080973
0.67782087
0.67574354
0.67801629
0.69098703
0.72260828
0.77156918
0.82675115
0.87281012
0.89485233
0.88955564
0.86690378
0.83952809
0.81737997
0.80350316
0.79276262
0.7814398
0.76981269
0.75824787
0.74893928
0.74224271
0.73484596
0.72687436
0.71956119
0.71206964
0.70549708
0.69861088
0.68800571
0.67572686
0.66488567
0.6575167
0.65777565
0.66394966
0.66955169
0.67122256
0.66736735
0.6612271
0.66234672000000006
0.67601837
0.70092732
0.73193244
0.75952125
0.77824797
0.79048761
0.79935206
0.80759126
0.81617971
0.82169124
0.82268409
0.82069359
0.8153143
0.80649432
0.79357017
0.77428007
0.75117547
0.72924928
0.71106183
0.69891502
0.69118596
0.68243924
0.67155112
0.65971986
0.64861692
0.64335676
0.64477592
0.64783133
0.64976023
0.64798628
0.64297762
0.64149903
0.64669473
0.65607263
0.66683025
0.6756985
0.68463429
0.701462
0.72796686
0.75734853
0.77839008
0.78006385
0.7629143
0.73959958
0.7221208
0.71599549
0.71789576
0.7182402
0.71355073
0.70808059
0.70612992
0.71009148
0.71669321
0.71852934
0.7141337
0.70655044
0.6982876
0.69241865
0.68792812
0.68095987
0.67307337
0.66672828
0.6622794
0.66156169
0.66228155
0.66077696
0.65894967
0.65913681
0.66359723
0.67604667
0.69514251
0.71671299
0.73822559
0.75570076
0.76719744
0.77443378
0.7772016
0.77541616
0.77047275
0.76189317
0.75139275
0.74259507
0.73537053
0.72903652
0.72249664
0.7130854
0.70263353
0.6946344
0.68909497
0.68608421
0.6836739
0.67839788
0.6723322
0.66816772
0.66538275
0.66466751
0.66444796
0.66254365
0.6626223
0.66637111
0.67192116
0.67925484
0.68819807
0.70219558
0.72984394
0.77325199
0.82484345
0.87161917
0.89851363
0.89979158
0.88342603
0.86106175
0.84258691
0.83277124
0.82806443
0.82474631
0.8222705
0.81842615
0.81153762
0.79975536
0.77999214
0.7549909
0.73111808
0.71218309
0.70092042
0.69502015
0.68744325
0.6759699
0.66217134
0.64940467
0.6442472
0.64714166
0.65070914
0.64985783
0.6429353
0.63639234
0.64595611
0.68125978
0.73889723
0.80615622
0.86413457
0.90097296
0.9188282
0.92405404
0.92195099
0.91486599
0.9010635
0.88320257
0.86954422
0.86437038
0.86569926
0.86516044
0.85113465
0.8209571
0.78234737
0.74524247
0.71845751
0.7033479
0.69296106
0.68228114
0.66968452999999994
0.65552673
0.64460232
0.63928456
0.63705813
0.63692545
0.6368145
0.63434565
0.63230425
0.63157326
0.63078247
0.63151592
0.63388644
0.63953723
0.65440735
0.67994383
0.71280835
0.7474916
0.77448468
0.78796925
0.79054363
0.78704885
0.78375224
0.78534049
0.78869668
0.78856826
0.78147936
0.76530753
0.74393207
0.72384934
0.70730648
0.69472305
0.68405546
0.67136526
0.65789005
0.64647206
0.63681545
0.62922269
0.62220691
0.61373068
0.60739631
0.6054213
0.60549186
0.60781899
0.61394122
0.62986595
0.66668818
0.7256809
0.79288803
0.84698781
0.86775901
0.85158767
0.81627913
0.78474233
0.7718454
0.77843787
0.79176205
0.80015281
0.80189658
0.79981159
0.79808173
0.79767234
0.79356341
0.78338816
0.76961094
0.75483799
0.74258861
0.73343259
0.72340571
0.71161239
0.69928341
0.6871988
0.67873138
0.67462116
0.67151161
0.66841253
0.66383614
0.65613915
0.64937664
0.64622986
0.64741944
0.65599434
0.6714017
0.69195957
0.71889393
0.74998687
0.78084984
0.80839883
0.82796591
0.83787115
0.84146239
0.84078746
0.8375515
0.8332557
0.82579099
0.81462906
0.80146854
0.78551325
0.76689913
0.74634386
0.72344651
0.70191039
0.6861109
0.67586167
0.67021103
0.66624723
0.66035588
0.65509053
0.65362126
0.65518226
0.65918823
0.66243783999999994
0.6616427
0.66049955
0.6616159
0.66427339
0.66948899
0.67742194
0.69118126
0.71848698
0.75961047
0.80500565
0.84116417
0.85484126
0.84465022
0.8236803
0.80630703
0.80069912
0.80533055
0.80939575
0.80504281
0.79262355
0.77570693
0.75971653
0.74734529
0.73604626
0.72525809
0.7162778
0.70888728
0.70422241
0.70141933
0.69710741
0.69221597
0.68837546
0.68545123
0.68557447
0.68824279
0.69065785
0.6943879
0.69960851
0.70508692
0.71240801
0.72032241
0.72665568
0.73250108
0.73661588
0.73775231
0.73800279
0.73787957
0.7386343
0.74339995
0.75096397
0.7585761
0.7643614
0.7647473
0.75938021
0.75098956
0.74037027
0.72904175
0.7178911
0.70478051
0.69027217
0.67648683
0.66435524
0.65701422
0.65513405
0.65461556
0.65334639
0.65003337
0.64474648
0.64336039
0.64920037
0.65993796
0.67466708
0.69184153
0.7126585
0.74354585
0.78396104
0.82335602
0.84839617
0.84761993
0.82231213
0.7894506
0.76667874
0.76246986
0.77341946
0.78537706
0.78715165
0.77822322
0.76292759
0.74745766
0.73535561
0.72449253
0.71429086
0.70655403
0.70089723
0.69681044
0.69222417
0.68409389
0.67521315
0.67023217
0.67025122
0.67513003
0.6808715
0.68227604
0.68107405
0.68064648
0.68260862
0.6902136
0.70224444
0.71563741
0.73114662
0.74656864
0.75767166
0.76303332
0.76140757
0.7554218
0.75289566
0.75719279
0.76599645
0.77427565
0.77395423
0.76203337
0.74345661
0.72385743
0.70826059
0.69847591
0.69027061
0.68054489
0.66918544
0.65613176
0.64414592
0.63507143
0.6267259
0.61895589
0.61238436
0.6070896
0.60645774
0.61103872
0.61652776
0.62150774
0.62628132
0.63432556
0.65585944
0.69529185
0.7465126
0.798018
0.83384582
0.84396691
0.83299209
0.81213355
0.79352116
0.7863749
0.79039797
0.80074296
0.81155385
0.81785614
0.81925973
0.81692434
0.80942657
0.79468921
0.77176698
0.74450275
0.72335307
0.71582667
0.71794321
0.71745931
0.70391099
0.68137463
0.66860739
0.67784809
0.697966
0.70215186
0.67363626
0.63122127
0.62196418
0.67354174
