0.94160437
0.94230319
0.97867169
1.0213226
1.043011
1.0349113
1.0068149
0.97787049
0.96445844
0.97247755
0.99489393
1.0173561
1.0286984
1.0265682
1.0160051
1.0035831
0.99498209
0.99099732
0.98810035
0.98029677
0.96645489
0.94854416
0.9304087
0.91436383
0.90276301
0.89523884
0.88967206
0.8835218
0.877064
0.87122257
0.8665087
0.86314278
0.8621876
0.86429742
0.86889227
0.8774739
0.89123809
0.90995031
0.93103883
0.95434385
0.97848976
1.0018873
1.0218025
1.0401451
1.0573426
1.0733825
1.0870752
1.0997473
1.1107465
1.1186842
1.1227295
1.1247589
1.1256727
1.1253018
1.1243652
1.1242747
1.1247726
1.1237462
1.1212609
1.1177033
1.1127992
1.1045443
1.094201
1.082174
1.0683912
1.050807
1.0317877
1.0121162
0.99226974
0.9716791
0.95287779
0.936541
0.92217246
0.90890803
0.89795628
0.88921716
0.88160134
0.87525472
0.87167709
0.87127659
0.87285038
0.87710251
0.88461476000000006
0.89511134
0.90675388
0.92105728
0.93847016
0.95871137
0.97923886
1.0013043
1.023824
1.045306
1.0637676
1.0806494
1.0956606
1.1075947
1.1153268
1.1198601
1.121054
1.118346
1.1132138
1.1086154
1.1060431
1.1046366
1.1047498
1.1059588
1.1067331
1.1041837
1.0995831
1.0940565
1.0884838
1.0812984
1.0744037
1.0670668
1.0577329
1.0440536
1.0277003
1.0096382
0.99061311
0.97139143
0.9545585
0.94060568
0.92813352
0.91634127
0.9057238
0.89617676
0.88679543
0.87922304
0.87526378
0.87554496
0.87837748
0.88459647
0.89367917
0.9047283
0.91546688
0.92828902
0.94373664
0.96165897
0.98050484
1.0010408
1.0216284
1.0397622
1.0536628
1.0644215
1.0724708
1.0776845
1.081301
1.085271
1.0898293
1.0933142
1.0961663
1.0989113
1.1014275
1.1019987
1.1022624
1.1025822
1.1023499
1.0984576
1.0919765
1.0822202
1.0685963
1.0502367
1.0302068
1.0101642
0.99068772
0.97172019
0.95481193
0.93973159
0.92504161
0.91058685
0.89787024
0.88754162
0.87867722
0.87201793
0.86807582
0.86638811
0.86492884
0.8650974
0.86771488
0.87323098
0.87999542
0.8900015
0.9028029
0.91725931
0.93146639
0.94681967
0.96311122
0.97936601
0.99470247
1.010115
1.0250426
1.037948
1.0487984
1.0587778
1.0679023
1.0746091
1.079526
1.0833214
1.0860683
1.0864757
1.0869831
1.0889669
1.0927286
1.0955876
1.0983545
1.0993888
1.0967262
1.0881167
1.0755934
1.0603671
1.0431677
1.0245021
1.0065881
0.98977912
0.97302125
0.95628633
0.94100908
0.92780329
0.91588407
0.90617559
0.89936128
0.89500706
0.8909064
0.88794186
0.88647379
0.88681106
0.88772124
0.89193494
0.900054
0.91180185
0.92561009
0.94249376
0.961501
0.98085812000000006
0.99912342
1.0170673
1.0341261
1.0487017
1.0604595
1.0701391
1.0774515
1.0809439
1.0818181
1.0815558
1.0808315
1.0783498
1.0759196
1.0739573
1.0721132
1.0678723
1.0631532
1.0578054
1.0511072
1.0412498
1.0297967
1.0168283
1.0019837
0.9853097
0.96932008
0.95501048
0.9417599
0.92938337
0.91853125
0.90877451
0.89860468
0.88909996
0.88194321
0.87802212
0.8760517
0.87708792
0.88078135
0.88618408
0.89078606
0.89673628
0.90480783
0.91545889
0.92793774
0.9438613
0.96231197
0.98106534
0.9980332
1.013533
1.0269568
1.0371684
1.0446752
1.0511879
1.0572256
1.0617571
1.0657684
1.0699597
1.0739168
1.0753601
1.0753694
1.0743374
1.0726165
1.0689485
1.0665025
1.0661211
1.0673897
1.0679585
1.0680481
1.0660435
1.0599684
1.0487672
1.0346466
1.0191816
1.0029758
0.98724283
0.97371775
0.96238993
0.95138145
0.94083786
0.93140062
0.92329314
0.91522451
0.90896953
0.90524587
0.90400769
0.90302054
0.90400565
0.90676951
0.91076451
0.91473434
0.92060028
0.9286088
0.93822487
0.94901385
0.96230961
0.97766943
0.99327399
1.0083062
1.0228666
1.0361046
1.0462159
1.0539494
1.0601907
1.0650119
1.0667823
1.0669688
1.0660855
1.064442
1.0607902
1.0583328
1.0580647
1.0598977
1.0619585
1.0648746
1.0671418
1.0665542
1.0615377
1.053533
1.0431888
1.030236
1.0153089
0.99992207
0.9842176
0.96683248
0.9486816
0.93119987
0.91524693
0.8998774
0.88693721
0.87698686
0.86969069
0.8624666
0.85682162
0.85254256
0.84919107
0.84563542
0.84402612
0.84490081
0.84801583
0.85321872
0.8622657
0.87521584
0.89075411
0.90843338
0.92846013
0.94967698
0.96955769
0.98787148
1.0045614
1.0190599
1.0295757
1.0377017
1.0441839
1.0493944
1.0519067
1.0542606
1.0567661
1.0590132
1.0595573
1.0600492
1.0604797
1.0601712
1.0586312
1.0574591
1.0565439
1.0542306
1.0495925
1.0428906
1.0337049
1.0208457
1.0057963
0.99059275
0.97632553
0.96175575
0.94791457
0.93464961
0.9214497
0.90642638
0.89223757
0.88017992
0.87091263
0.86346513
0.85894725
0.85632404
0.8537888
0.8502014
0.8472691
0.84603424
0.84672346
0.85041811
0.8585313
0.87068742
0.88475255
0.90062308
0.9181998
0.93663905
0.95350307
0.96948052
0.98426764
0.99729875
1.0065048
1.0144801
1.0220312
1.0293836
1.0354268
1.0418473
1.0480771
1.0524712
1.0535457
1.0524287
1.0490771
1.0424966
1.0329388
1.0219845
1.0101678
0.99664149
0.98274436
0.96995374
0.95866904
0.94711857
0.9362146
0.92594479
0.91599702
0.90446318
0.89383109
0.88500415
0.87825848
0.87246719
0.86908174
0.86788642
0.86812103
0.86947792
0.87399413
0.88240361
0.8939533
0.90827398
0.92546131
0.94440264
0.96296192
0.9815598
1.0008838
1.0206661
1.0385191
1.0545604
1.0677207
1.0769267
1.0802692
1.0810361
1.08111
1.0816885999999999
1.0821758
1.083996
1.0859676
1.0859634
1.0825757
1.0775756
1.07205
1.0660705
1.0602696
1.0555699
1.0509362
1.0435048
1.0328269
1.019483
1.0042069
0.9866458
0.96970014
0.95511462
0.94343143
0.9323805
0.92315942
0.91500779
0.90693197
0.89744686
0.88867372
0.88152207
0.8761787
0.87264537
0.87254341
0.87567728
0.8805008
0.88658976
0.89469833
0.90468547
0.91522057
0.92715466
0.94106144
0.95638072
0.97073116
0.98486151
0.99860754
1.0116106
1.0219764
1.0321424
1.0424289
1.052414
1.0604883
1.0679841
1.0743901
1.0785288
1.0796789
1.0796465
1.0788821
1.0765574
1.0726809
1.0680979
1.0623011
1.0533852
1.0418603
1.0288139
1.0148899
0.99917195
0.98371277
0.96946798
0.95660809
0.94310353
0.93078326
0.91968599
0.90944421
0.89879347
0.8896201
0.88233189
0.87660822
0.87213818
0.87054081
0.87189439
0.87498054
0.8794865
0.88609559
0.89453974
0.90344581
0.91373482
0.92632616
0.94112619
0.95608225
0.97182391
0.98764577
1.002322
1.0130595
1.0215599
1.0279081
1.0320107
1.0330673
1.0333033
1.0329905
1.0314611
1.0282291
1.0250768
1.0224835
1.01989
1.0178119
1.0175862
1.0189164
1.0195419
1.0189928
1.016902
1.0123808
1.0033558
0.99148787
0.9781526
0.96453064
0.94975632
0.93663286
0.92564111
0.91627074
0.90667025
0.89804666
0.89027675
0.88281767
0.87544749
0.87013823
0.86734239
0.86605131
0.86593609
0.86756376
0.87056118
0.87358426
0.87779072
0.88450984
0.89407489
0.90474601
0.91731717
0.9312278
0.94548741
0.95772204
0.9699957
0.98265821
0.99546426
1.0069169
1.0179515
1.0275274
1.0340213
1.0366137
1.0373043
1.0372614
1.036674
1.0364946
1.0380261
1.040695
1.0420372
1.0416717
1.0396501
1.035694
1.0282334
1.0190266
1.0090163
0.99854487
0.98582157
0.9729739
0.96033393
0.94784404
0.93453782
0.92256194
0.91241929
0.90359826
0.89528273
0.88854403
0.88302285
0.87732581
0.87127529
0.86609783
0.86222972
0.85889223
0.85728215
0.85845331
0.8624294
0.86743742
0.87459632
0.88402483
0.89540887
0.90669301
0.91974117
0.93432883
0.94960922
0.96381027
0.97800544
0.99153946
1.0030893
1.0117268
1.0187141
1.0241042
1.0270642
1.0280775
1.0287
1.0293263
1.0288808
1.0283295
1.0285645
1.0294981
1.0291367
1.0283997
1.0270996
1.0243883
1.0174064
1.0075924
0.99503646
0.97999227
0.96229033
0.94516443000000006
0.93010515
0.91720298
0.90573353
0.89652227
0.88885395
0.88109941
0.87305257
0.86609206
0.86065962
0.85558219
0.85128759
0.84812471
0.84586848
0.84322371
0.84244929
0.84513222
0.85206907
0.86143185
0.87433816
0.8893355
0.90452789
0.91786861
0.93114731
0.94508029
0.95966329
0.97452085
0.99036626
1.00579
1.0181551
1.0264782
1.0316648
1.0343679
1.0343907
1.0338228
1.0345031
1.0369464
1.0394162
1.0429404
1.0472363
1.0511698
1.0513594
1.0485831
1.0421534
1.0316302
1.0163985
0.99961572
0.98299363
0.9670306
0.95145485
0.93748307
0.92474911
0.91199433
0.89936087
0.88848204
0.87995085
0.87260622
0.86660048
0.86189513
0.85793692
0.85330561
0.85022748
0.85047284
0.85510179
0.86254256
0.87397056
0.88800175
0.90281059
0.91645542
0.93079791
0.94657658
0.96365384
0.98133332
0.99987095
1.0173938
1.0309554
1.0395536
1.0443732
1.0464913
1.0460451
1.0452562
1.045726
1.0473736
1.0476648
1.0470711
1.0450958
1.04094
1.0320343
1.0204739
1.0067608
0.99123885
0.97346752
0.9563677
0.94108901
0.92759566
0.91532787
0.90549918
0.89771356
0.89038177
0.88298681
0.87639578
0.87056711
0.86411961
0.85767897
0.85219057
0.84808571
0.84444898
0.8434847
0.84651458
0.85409524
0.86442277
0.87893905
0.89669847
0.91606511
0.93468412
0.95348928
0.97209844
0.98968649
1.0057692
1.0217221
1.0372807
1.0509488
1.0623272
1.0719874
1.0795489
1.0835714
1.0850227
1.0850172
1.0839501
1.0806281
1.0768949
1.073545
1.0707468
1.066572
1.0628886
1.0594425
1.0552293
1.0480716
1.0389372
1.027456
1.0129037
0.99507799
0.97645397
0.95843955
0.94123179
0.92559732
0.91296099
0.90315073
0.89416514
0.88580218
0.87815634
0.87083844
0.86212539
0.8535685
0.8460539
0.8400928
0.83431527
0.83117785
0.83100839
0.83345111
0.83715486
0.84366238
0.85274958
0.8634725
0.8751949
0.88928176
0.90555686
0.92264018
0.940192
0.9586275
0.97708857
0.993389
1.0077105
1.0204315
1.0313621
1.0388892
1.0447794
1.0498191
1.0542168
1.0560667
1.0574483
1.0582267
1.0575941
1.0536963
1.0478561
1.0398814
1.029005
1.0147571
0.99908638
0.98282533
0.96580775
0.94879799
0.93351336
0.92033524
0.90796278
0.89673424
0.887034
0.87855932
0.86962761
0.86154397
0.85502051
0.85042479
0.84635878
0.84491499
0.84632213
0.8502511
0.85548926
0.86351698
0.87417908
0.886486
0.89948842
0.9139562
0.92920671
0.94354241
0.95652308
0.96875074
0.9798725
0.9883853
0.9950524
1.0006371
1.0051415
1.0070232
1.0079702
1.0086658
1.0092586
1.0078605
1.0065284
1.005048
1.0024779
0.99683251
0.98936339
0.97990207
0.96786001
0.95308749
0.93787699
0.92328457
0.90914791
0.89595934
0.88489648
0.87567768
0.86639119
0.85707266
0.84820452
0.83992947
0.83113952
0.82373178
0.81869048
0.81620413
0.81422711
0.81414738
0.81554155
0.81778365
0.8198328
0.82389445
0.83074534
0.84026991
0.85206781
0.86705215
0.88423466
0.9013467
0.91735996
0.93258275
0.94676194
0.9587941
0.9697774
0.98051006
0.99050517
0.99729021
1.0013022
1.0024031
1.0008153
0.99588406
0.99145807
0.98935207
0.9900112
0.99165729
0.99428133
0.99573821
0.99345806
0.98598808
0.97529613
0.96302162
0.9499348
0.93721125
0.92624613
0.91663976
0.90635741
0.89548635
0.88485465
0.87505408
0.86525359
0.85713838
0.85122749
0.84727801
0.84319358
0.84047692
0.8390155
0.83825716
0.8367866
0.83596096
0.83585639
0.83627647
0.83759709
0.84210849
0.85036069
0.861099
0.87330906
0.88635535
0.89871795
0.90848432
0.91684696
0.92568114
0.93614897
0.9472699
0.95986127
0.97277235
0.98400307
0.99022296
0.9928492
0.99243284
0.98973714
0.98476392
0.97987673
0.97500892
0.96866385
0.95923997
0.94751359
0.93372649
0.91790198
0.9015665
0.88727535
0.87596491
0.86632632
0.8581347
0.85092288
0.8436671
0.83436589
0.82464863
0.81590329
0.80909102
0.8028178
0.79873863
0.79620416
0.79395651
0.79017322
0.78650343
0.78371969
0.78217475
0.78215816
0.78533056
0.7914201
0.79869295
0.80637494
0.81490255
0.82413841
0.83311046
0.84302854
0.85485242
0.86829207
0.88103861000000006
0.89342907
0.90489099
0.91481907
0.92143595
0.92736293
0.93345768
0.93979385
0.94499009
0.95025595
0.95511764
0.95865446
0.96051498
0.96290518
0.96659684
0.97051578
0.97351415
0.97485538
0.97266814
0.96441071
0.95079784
0.93418221
0.91701323
0.89999652
0.88591863
0.87570324
0.86879676
0.86213337
0.85645337
0.85119256
0.84577572
0.83898561
0.83270498
0.82754076
0.82355977
0.82100525
0.82208576
0.82756265
0.83671668
0.84919354
0.86511036
0.88337053
0.9017554
0.92033409
0.93953818
0.95919151
0.9774836
0.99516496
1.0117869
1.0263773
1.036404
1.0436185
1.0483752
1.0508972
1.0506617
1.0501805
1.0501618
1.0503037
1.0501611
1.05122
1.0532182
1.0543535
1.0535515
1.0508525
1.0453596
1.0351269
1.0208625
1.0041518
0.98624253
0.96673055
0.94808342
0.93162554
0.91772727
0.90426878
0.8928682
0.88329295
0.87486188
0.86594891
0.85820529
0.8519296
0.84677124
0.84245952
0.84085696
0.84248089
0.84668457
0.85371439
0.86457627
0.87884147
0.89442259
0.91117859
0.92897058
0.94709602
0.96365143
0.98016706
0.99723642
1.014789
1.0305798
1.0460008
1.0602445
1.072142
1.0800896
1.0860784
1.0906955
1.0941368
1.0967508
1.0988247
1.0993981
1.0978308
1.0957019
1.0950279
1.0962597
1.0975572
1.0965587
1.0898368
1.0753526
1.0542473
1.0323448
1.0147238
1.0029907
0.99342968
0.98075195
0.95952921
0.93004539
0.89996305
0.8814178
0.88141925
0.8964077
0.91272206
0.91362292
0.88931322
0.84638418
0.80876166
0.80482874
0.84898596
0.92810054
1.0026242
