0.83941459
0.86253166
0.90739464
0.9382836
0.93779489
0.91280967
0.88462436
0.87196902
0.88024705
0.89951602
0.91314326
0.91263382
0.90019972
0.88435752
0.8725633
0.86776017
0.86684326
0.86388739
0.85758584
0.85015416
0.84410651
0.83959979
0.83592557
0.83196302
0.82793216
0.82891066
0.84078262
0.86548097
0.89856292
0.93216569
0.95739634
0.96760666
0.96550588
0.9576254
0.95075293
0.94930174
0.95480759
0.96352872
0.96899538
0.96980847
0.96660218
0.96107764
0.95524673
0.95191297
0.95060733
0.94814252
0.94473322
0.94071333
0.93607059
0.93077997
0.92658985
0.92300945
0.91751041
0.91070898
0.90316825
0.8948638
0.88563812
0.87747428
0.87026284
0.86175247
0.85224787
0.84205751
0.8312538
0.82030315
0.81247006
0.80891047
0.80804131
0.80992344
0.81389241
0.81894403
0.82497044
0.83546756
0.85177413
0.87188039
0.89395633
0.91432721
0.92851907
0.93361629
0.93244703
0.92822706
0.92311565
0.92034334
0.92090621
0.92300887
0.92359503
0.9234
0.92249042
0.92016724
0.91792829
0.91677921
0.91592133
0.91325525
0.9101263
0.9065959
0.90174832
0.89669305
0.89255536
0.88898351
0.8841778
0.87936166
0.87417252
0.86724664
0.85924513
0.85153794
0.84459114
0.83752417
0.83248074
0.82959165
0.82746575
0.82616808
0.82630558
0.82756719
0.82847706
0.83130804
0.83656367
0.84352755
0.85278099
0.86497468
0.87894915
0.89141867
0.90242957
0.91030521
0.91290806
0.91046147
0.90482252
0.89724864
0.88731372
0.87807741
0.87005463
0.86209187
0.85408263
0.84712796
0.84160558
0.83627959
0.83396988
0.83501343
0.83776063
0.84080285
0.84367233
0.84513528
0.84288981
0.83940213
0.83576645
0.83164786
0.82682901
0.82197285
0.81666936
0.80930068
0.80261951
0.79802452
0.79523474
0.79356596
0.79295143
0.79217727
0.78931012
0.78725292
0.78828676
0.79336398
0.80273812
0.81646127
0.83210448
0.84548443
0.8566425
0.86551357
0.87191501
0.87639483
0.88090138
0.88567781
0.88910665
0.89274758
0.89713626
0.90164126
0.90552518
0.9095432
0.91287816
0.91311763
0.9113493
0.90821972
0.90364994
0.89765602
0.89203001
0.88670639
0.87955285
0.871141
0.86147008
0.84998167
0.8366123
0.82391324
0.81313426
0.80359281
0.7966806
0.7926205
0.79025522
0.78814087
0.78731048
0.78761045
0.78748379
0.78800334
0.78983693
0.79280486
0.79661249
0.80340384
0.81341531
0.82468803
0.83699691
0.84922507
0.85930139
0.86538748
0.86916366
0.87139221
0.8715582
0.87127258
0.87132265
0.87099333
0.86888858
0.86669741
0.86475682
0.86210877
0.8599909
0.85932465
0.85966916
0.85955403
0.86038336
0.86178497
0.86181193
0.86045634
0.85801763
0.85410476
0.84777199
0.84151721
0.83625949
0.83120367
0.82680913
0.82346764
0.82054475
0.81660748
0.81374821
0.81254281
0.81196302
0.81215826
0.81336867
0.81490038
0.8153045
0.81698229
0.82071135
0.82558932
0.8315807
0.83854837
0.84520043
0.84937058
0.85318131
0.85747936
0.86185049
0.86682533
0.87299325
0.87951033
0.88403162
0.8883205
0.89258638
0.89571233
0.89746937
0.89810486
0.89667327
0.89085724
0.88316419
0.87510382
0.86742792
0.86170929
0.85966529
0.86071378
0.8613377
0.86165595
0.86038289
0.85611611
0.84947909
0.84302589000000006
0.83823648
0.83408555
0.83249479
0.83302439
0.83391325
0.83446246
0.83583991
0.83841622
0.84071175
0.8446608
0.8502769
0.85630845
0.86228469
0.86942192
0.8778378
0.88574614
0.89452094
0.90362507
0.91119181
0.91604036
0.91894201
0.9199239
0.91779213
0.91498115
0.91250794
0.9100234
0.90726148
0.90540888
0.90426588
0.90203819
0.9003458
0.89977718
0.89975615
0.89972581
0.90082302
0.90265513
0.90309962
0.90320477
0.90314031
0.90197275
0.89877405
0.89473863
0.88988279
0.88287777
0.87557875
0.86904233
0.86292094
0.85631863
0.85024895
0.8443154
0.83689399
0.82971249
0.82407664
0.82003879
0.81696278
0.81600165
0.81649007
0.81641338
0.81697389
0.81921734
0.82322539
0.82849335
0.83638826
0.84611449
0.85508234
0.86330851
0.87068462
0.87640611
0.87950522
0.88179299
0.88343604
0.88300641
0.88155063
0.87999391
0.87829469
0.87579732
0.87472004
0.87525302
0.87559407
0.87584967
0.87597809
0.87506834
0.8717911
0.86824942
0.86486783
0.86023114
0.85453232
0.84797817
0.84007478
0.83005691
0.8210309
0.81457209
0.81020019
0.80822166
0.80838062
0.80913901
0.80831643
0.8079745
0.80918325
0.81170553
0.81652056
0.82436714
0.83451156
0.84494424
0.85726482
0.87119228
0.88464985
0.89654733
0.90603401
0.91161203
0.91150626
0.90892913
0.90609588
0.90379034
0.90328644
0.90532858
0.90863284
0.9100897
0.91100645
0.91160198
0.9113792
0.91117823
0.91237543
0.9147191
0.91580761
0.91708636
0.91833117
0.91837535
0.91722773
0.91588753
0.91414765
0.90981869
0.90462873
0.89874885
0.89162848
0.88391876
0.87745501
0.87277107
0.8682413
0.8655861
0.86476672
0.86490863
0.86632817
0.87066695
0.87811504
0.88648481
0.89651921
0.90684662
0.91512223
0.92035188
0.9236364
0.92537413
0.92440654
0.92289743
0.92118858
0.91837244
0.91421582
0.91017182
0.90645501
0.90143394
0.89670055
0.89224271
0.88687909
0.88006332
0.87332239
0.86705966
0.85997372
0.85388055
0.84893918
0.84377333
0.83713212
0.8299434
0.82232521
0.81337257
0.80569484
0.80072841
0.79811085
0.79666089
0.79655858
0.79658997
0.79459511
0.79221864
0.79077865
0.79041002
0.79062501
0.79238221
0.79496247
0.79655491
0.79891466
0.80337042
0.80980892
0.81708933
0.82546757
0.83346406
0.83874186
0.84268459
0.84671215
0.85093957
0.85429261
0.85734101
0.85909463
0.85799065
0.85620358
0.85605838
0.85805831
0.86049417
0.86274479
0.86230436
0.85642323
0.84678621
0.83660908
0.82824957
0.82198947
0.81886465
0.81702054
0.81320701
0.80755279
0.80168342
0.79682864
0.79280925
0.79116601
0.7909253
0.78966047
0.78769937
0.78651216
0.78693952
0.78838422
0.7923154
0.79782199
0.80257021
0.80663398
0.81105675
0.81620632
0.82117548
0.82764184
0.83512166
0.84178713
0.84782972
0.85408948
0.86035567
0.86487974
0.86888599
0.87179533
0.87215772
0.87086173
0.86997264
0.87058679
0.87182898
0.87551727
0.8808583
0.88533342
0.88793506
0.88899486
0.88843441
0.88497035
0.88117275
0.87767637
0.87354792
0.86871042
0.86386203
0.85874759
0.85160922
0.84467807
0.83855567
0.83260314
0.82699029
0.82270228
0.8196413
0.81596797
0.81395151
0.81412574
0.81578328
0.81886807
0.82421556
0.831491
0.83863389
0.84752681
0.8581701
0.86904707
0.87906804
0.88838161
0.8964349
0.90169129
0.90699383
0.9134961
0.92030189
0.92594848
0.92966439
0.92969574
0.92376801
0.91495868
0.90591245
0.89797772
0.891835
0.88837276
0.8863444
0.88287346
0.87944473
0.87705742
0.87564589
0.87478136
0.87499074
0.8750536
0.87234968
0.86851905
0.86505212
0.86254982
0.86116627
0.86203099
0.86412466
0.86452434
0.86396244
0.86307705
0.86202964
0.86116211
0.86257295
0.86635951
0.8704544
0.87554778
0.88140452
0.88676302
0.89046168
0.89365317
0.89609574
0.89613297
0.89531273
0.89472317
0.89457338
0.89493114
0.89797202
0.90373325
0.90989807
0.91633536
0.92223893
0.92603723
0.92647574
0.92572092
0.9247893
0.92298174
0.92173339
0.92155934
0.9214469
0.91972206
0.91771225
0.91533603
0.91097058
0.9053453
0.89895554
0.89126476
0.88128771
0.87142749
0.86269972
0.85449632
0.84811157
0.84430148
0.84223078
0.83997344
0.83893014
0.83917
0.83965018
0.84171186
0.84673549
0.85457708
0.8635031
0.87462865
0.88701355
0.89821269
0.90799353
0.91670933
0.92384814
0.92789041
0.93096999
0.93345187
0.93432405
0.93448243
0.93518318
0.93633083
0.93622524
0.93667915
0.93763196
0.937812
0.93786307
0.93908873
0.94143294
0.94289463
0.94487787
0.94675882
0.94677687
0.94507144
0.94302918
0.94113996
0.93811221
0.9362327
0.93570379
0.93532903
0.93514623
0.93610157
0.9378708
0.93804769
0.93808348
0.93774532
0.93608126
0.93381456
0.93288931
0.93380702
0.93441748
0.93599519
0.93749498
0.93705916
0.93468182
0.93225366
0.93078722
0.92916986
0.92960071
0.93175274
0.93386399
0.93526101
0.93696657
0.93903513
0.93962059
0.94061217
0.94192369
0.94223763
0.94123514
0.94052139
0.94059387
0.93990932
0.94038986
0.94178176
0.94211973
0.93986711
0.93557247
0.92908156
0.91911604
0.9087067
0.89960662
0.89196938
0.8856071
0.8814565
0.87851238
0.87388263
0.86860856
0.86311979
0.85722592
0.85131462
0.84782944
0.84752597
0.84902245
0.85383619
0.86192826
0.87162267
0.88105729
0.89059669
0.89951097
0.90600794
0.91200544
0.91867373
0.92574071
0.93231092
0.93912625
0.94517145
0.94812182
0.9492164
0.94948172
0.9490371
0.94765855
0.94710383
0.94714475
0.94579743
0.94402358
0.94240239
0.94046807
0.93730016
0.93439516
0.93156217
0.92714295
0.92231174
0.91815219
0.91476906
0.91160518
0.91042697
0.91098791
0.91116932
0.91096943
0.91012891
0.90740319
0.90112502
0.89284736
0.88301622
0.87114482
0.85930833
0.84943057
0.84199766
0.83623213
0.83381031
0.83440308
0.83624465
0.8398515
0.84575076
0.85318424
0.86018508
0.86767135
0.87467755
0.87908809
0.88130534
0.88236442
0.88240998
0.88042438
0.87860346
0.87704414
0.87433867
0.87107845
0.86845949
0.86663954
0.86433539
0.86367621000000006
0.86452083
0.86493744
0.86441024
0.86295522
0.85961746000000006
0.85234688
0.84351143
0.83422136
0.8247232
0.81681984
0.81267314
0.81251175
0.81394444
0.81764129
0.82216846
0.82512813
0.82609859
0.82647396
0.82728887
0.82807585
0.83191587
0.83928885
0.84864874
0.85895468
0.86997326
0.88073426
0.88910848
0.89743277
0.90628629
0.91486882
0.92282389
0.93037163
0.93647127
0.93860322
0.93872379
0.93765804
0.93539728
0.93262871
0.93092267
0.93018155
0.92819411
0.92654925
0.92550794
0.92445491
0.9234209
0.92362685
0.9245546
0.92339716
0.92073758000000006
0.91616113
0.90886319
0.89924002
0.88968643
0.88112016
0.87199949
0.86336361
0.85464915
0.84449919
0.8327455
0.82186986
0.81354911
0.80758508
0.80624895
0.80970711
0.81637088
0.82471266
0.8350822
0.84651369
0.85641346
0.86532056
0.87282146
0.87788521
0.88034595
0.88253081
0.88530771
0.88744291
0.8900506
0.89285756
0.894554
0.89435396
0.89425222
0.89483572
0.89460166
0.89433966
0.8936605
0.89117917
0.88596768
0.88031342
0.87521527
0.86967298
0.86466607
0.86001159
0.85433169
0.84636609
0.83816949
0.83072322
0.82333662
0.81716808
0.81245463
0.80814482
0.8029148
0.79860952
0.7959444
0.79408752
0.79406737
0.79616902
0.79937222
0.80220712
0.80641014
0.81243081
0.81928468
0.82785231
0.83837755
0.84961989
0.85946662
0.86898122
0.87783273
0.88446246
0.88955648
0.89388767
0.89706974
0.89770254
0.89775621
0.8975354
0.89592116
0.89370992
0.89186717
0.89006052
0.88660816
0.88328596
0.88026138
0.87645832
0.87259471
0.86974316
0.86753267
0.86383037
0.85988667
0.85548786
0.84961271
0.84325396
0.83822974
0.83501269
0.83200851
0.83066536
0.8306971
0.83104205
0.83267094
0.83764302
0.84662825
0.857715
0.87150622
0.88601566
0.89809308
0.90674732
0.91303189
0.91786978
0.92075524
0.92470947
0.93001173
0.93499661
0.93885821
0.9420034
0.94426221
0.94407263
0.94427703
0.94556353
0.94689787
0.94760823
0.94785793
0.94669437
0.94170068
0.93511731
0.92794861
0.92020105
0.91245036
0.90621515
0.90142694
0.89595389
0.89145534
0.88812796
0.8850229
0.88167623
0.87900065
0.87668079
0.87275634
0.86914214
0.86656749
0.86465671
0.86336854
0.86396555
0.86617024
0.86791429
0.87077491
0.87510823
0.88018942
0.88560868
0.89239111
0.89988659
0.90561786
0.91056138
0.91469032
0.91719412
0.91787369
0.91852312
0.91939744
0.91885242
0.91834982
0.91818351
0.91756802
0.91599302
0.91520525
0.9153721
0.91461848
0.91391785
0.91316903
0.91107392
0.90643908
0.90095773
0.89518497
0.88804438
0.88138116
0.87606377
0.87132615
0.86571978
0.86038059
0.85510187
0.84827734
0.84144539
0.83579712
0.83119508
0.82671088
0.82394236
0.8228356
0.82179317
0.82211335
0.82479913
0.82948066
0.83483949
0.84212529
0.85090173
0.85947754
0.86908169
0.88088651
0.8946927
0.90905586
0.92473178
0.94048588
0.95385964
0.96528475
0.97560991
0.98472828
0.99148721
0.99741858
1.0022004
1.0043135
1.0048246
1.0051312
1.005293
1.0038055
1.0019481
0.99934996
0.99481949
0.98979455
0.98620672
0.98424901
0.98172096
0.97882194
0.97399384
0.96527682
0.95389132
0.94253122
0.93260071
0.92282433
0.91389075
0.90399921
0.89060361
0.87444019
0.85865111
0.8461019
0.83752336
0.83570289
0.83967074
0.84596679
0.85265312
0.85933899
0.86556937
0.86999143
0.87533936
0.88184896
0.88791136
0.89304898
0.89763211
0.90130439
0.9025979
0.90453681
0.90798527
0.91210259
0.91671726
0.92214286
0.92743547
0.93002531
0.9322218
0.93445132
0.93574464
0.93586444
0.9356151
0.93475095
0.93158129
0.92914682
0.92855022
0.92893369
0.92922973
0.92913086
0.9272754
0.92137775
0.91432429
0.90807323
0.9029356
0.89849552
0.89455923
0.88914154
0.87901555
0.86628778
0.85323823
0.84175091
0.83379476
0.83174576
0.83509429
0.84041864
0.84782893
0.85674067
0.86629076
0.87657889
0.88949752
0.90482325
0.9195674
0.93347275
0.94500296
0.95219267
0.95456048
0.95469259
0.9543131
0.95326969
0.95393621
0.95667818
0.96004173
0.96251454
0.96497183
0.9671205
0.967121
0.96636018
0.9653162
0.96337393
0.9600349
0.95737013
0.95591615
0.95422521
0.95334116
0.95325427
0.95273553
0.95050533
0.94809374
0.94573927
0.94196771
0.93761398
0.93270563
0.9263568
0.91796052
0.90770244
0.89523637
0.88115152
0.86906236
0.86167457
0.85945237
0.86080359
0.86353802
0.86505156
0.86551852
0.86988141
0.88183558
0.90005225
0.91789937
0.92762889
0.9244283
0.91219141
0.90395591
0.91066835
0.93165682
0.95279057
0.95565541
0.93008557
0.88665258
0.8559675
0.86750449
0.92558045
0.99745103
