0.74644888
0.74342186
0.76820475
0.79529909
0.80555244
0.79689
0.78218073
0.77802255
0.79575532
0.83412567
0.88165274
0.92430205
0.95486391
0.97431843
0.98884768
1.005648
1.0283304
1.0544906
1.0761598000000001
1.0876486
1.0861274
1.0726649
1.0510851
1.0283558
1.0093534
0.99398292
0.97884471
0.9588746
0.92867735
0.88397238
0.82839264
0.77039256
0.72032675
0.68657529
0.6735737
0.67658709
0.68365018
0.68368193
0.67071959
0.64712447
0.62226008
0.61209802
0.62639218
0.66332743
0.70940218
0.74679659
0.76038101
0.74653876
0.71925466
0.70278694
0.71956085
0.77764043
0.87154743
0.97946612
1.0746489
1.138027
1.1673898
1.1726069
1.1683793
1.1694281
1.1820533
1.2023228
1.2185632
1.2239292
1.213252
1.1850867
1.14122
1.0874171
1.028264
0.96696817
0.90879272
0.85890394
0.82005259
0.7905661
0.7697536
0.75452564
0.74235485
0.73322095
0.73100659
0.73893298
0.75728816
0.7847334
0.81738355
0.85006118
0.87764693
0.9010801
0.92233515
0.94377158
0.96711865
0.99447501
1.0250095
1.0552072
1.0837579
1.109903
1.1325771
1.1488585
1.1611997
1.1699864
1.1749624
1.1762659
1.1765736
1.1756692
1.169838
1.156616
1.1332386
1.0971397
1.046254
0.98688919
0.92602152
0.87057907
0.82566535
0.79477204
0.77567253
0.76168407
0.74717951
0.72892804
0.707444
0.68646505
0.67603805
0.68451360000000006
0.71595942
0.76867821
0.83664721
0.90862987
0.97164937
1.0184672
1.0478957
1.0638269
1.0717325
1.0820004
1.1001692
1.1264972
1.1572567
1.1886852
1.2150781
1.2307787
1.2355869
1.2321253
1.2237262
1.2113986
1.1991897
1.1856492
1.1655407
1.1328365
1.0858893
1.0261035
0.95890242
0.89505236
0.84440172
0.81065352
0.78874745
0.77220874
0.75351375
0.73066851
0.71019947
0.70585564
0.72907997
0.78191464
0.85626446
0.93508202
0.99932174
1.035444
1.0449352
1.0378026
1.0275174
1.024734
1.0342157
1.0517508
1.0680731
1.0784385
1.0828839
1.0840577
1.0822719
1.0811286
1.0787314
1.0710802
1.0557532
1.0356515
1.0134644
0.98958966
0.9649968
0.93892579
0.90966209
0.87519767
0.84070336
0.80990649
0.78379323
0.76006356
0.73681708
0.71167493
0.68429139
0.65971647
0.6439918
0.63909503
0.63969574
0.63976593
0.63305008
0.62003851
0.61170568
0.6279084
0.68601565
0.79170707
0.93665305
1.0974981
1.2432731
1.3454309
1.3929167
1.3887689
1.3476458
1.2893404
1.2338927
1.1923033
1.1656961
1.1521057
1.1476555
1.1481061
1.1486665
1.1509591
1.154954
1.1590893
1.1605133
1.1576482
1.1471039
1.1247409
1.0899764
1.044419
0.99057068
0.93023831
0.8694448
0.81316472
0.76588679
0.73124841
0.71212452
0.70655919
0.70784402
0.70942309
0.70773853
0.70542232
0.71127171
0.74108939
0.80595326
0.90562978
1.0266289
1.1473839
1.243072
1.2954252
1.3041008
1.2827695
1.2504964
1.2208005
1.2030046
1.1937709
1.1834923
1.164222
1.1366301
1.1054687
1.0755901
1.0517696
1.0339151
1.0171304
0.99367663
0.96346854
0.92735259
0.88714074
0.84461862
0.80315328
0.76444889
0.72984596
0.7035371
0.68899123
0.68552074
0.68659185
0.68743506
0.68523453
0.68455665
0.69844821
0.74475359
0.83433046
0.96283089
1.1112533
1.2495625
1.3475022
1.3854556
1.3668091
1.309576
1.2393212
1.1795222
1.1451863
1.1368752
1.1443438
1.1577055
1.1701813
1.1787176
1.1808556
1.1803967
1.177445
1.1695382
1.1537651
1.1310449
1.1022557
1.0677172
1.0303113
0.99282515
0.95642593
0.91940368
0.88401543
0.85055334
0.8182745
0.78620406
0.75607585
0.72915392
0.70597497
0.6885576
0.67799469
0.673068
0.66975332
0.66788242
0.66776367
0.67247035
0.68889329
0.72710437000000006
0.79335951
0.88735365
1.004293
1.1322282
1.2539537
1.3499611
1.4110142
1.4336874
1.4221449
1.3869365
1.3437842
1.3045687
1.2745001
1.255731
1.2460616
1.2403477
1.2316777
1.2203588
1.2066737
1.1909605
1.1727306
1.1518891
1.1246585
1.0851472
1.031541
0.96670872
0.89779272
0.83329749
0.78446699
0.75584176
0.74388386
0.7389751
0.73199891
0.71793761
0.70030222
0.69354883
0.71618443
0.78153064
0.88911734
1.0264279
1.167435
1.2821763
1.3481925
1.3594927
1.3244668
1.2615229
1.1959393
1.1482596
1.1277017
1.1296914
1.1472914
1.1681827
1.181438
1.1816815
1.1713742
1.1544288
1.1333501
1.1112533
1.0883723
1.0618321
1.0262942
0.98296985
0.93358163
0.88158262
0.83167769
0.7901042
0.75942646
0.73809086
0.72390836
0.71387387
0.70503789
0.69477034
0.68553589
0.67966212
0.67947082
0.68781096
0.70985022
0.75047416
0.81305402
0.90043292
1.0084869
1.1233231
1.2214112
1.2833749
1.2945267
1.2536836
1.176203
1.0915151
1.027789
1.0007476
1.0118171
1.047285
1.085727
1.1071435
1.1074377
1.0911873
1.0673834
1.0429403
1.0204993
0.99467007
0.95699878
0.90553615
0.84594921
0.78891603
0.74400601
0.71942527
0.71358961
0.71705994
0.71772634
0.70831654
0.6880051
0.66367443
0.65010522
0.6634183
0.71451539
0.80356447
0.92271859
1.053183
1.1710662
1.2552061
1.2948074999999999
1.2897265
1.2500863
1.1960871
1.1483303
1.12045
1.1140494
1.1266685
1.1482699
1.1673619
1.1760236
1.1744078
1.1646539
1.1480383
1.126759
1.1009393
1.0687663
1.0272999
0.98072388
0.9332022
0.88825911
0.8475624
0.81260555
0.78197668
0.75307554
0.72665922
0.70518255
0.69026033
0.68000786
0.6734428
0.66726239
0.65928875
0.65117966
0.64998412
0.66315182
0.69515696
0.74868065
0.82191844
0.9097738
1.0050072
1.1048997
1.2033448
1.2909259
1.356208
1.3904696
1.3880894
1.3502695
1.2897281
1.2245284
1.1708094
1.1356003
1.1212898
1.120283
1.1214295
1.11634
1.1045529
1.0882462
1.0688288
1.0474622
1.0221377
0.98843096
0.94176818
0.88620253
0.82899936
0.77902215
0.74322668
0.72511645
0.72062291
0.72009034
0.71512842
0.70166122
0.68191015
0.66319121
0.6589583
0.67921455
0.72655693
0.79487814
0.87229397
0.94276636
0.99190666
1.0154959
1.0180361
1.0098916
1.0012143
1.0048755
1.024728
1.0567504
1.0922932
1.1239215
1.1447473
1.1506376
1.1443382
1.1311023
1.1149943
1.0955479
1.0743506
1.049319
1.0180816
0.98038214
0.94029907
0.90073153
0.8617987
0.82385659
0.78716887
0.7529872
0.72340515
0.7051006
0.70063017
0.70619832
0.7124611
0.71083108
0.69760249
0.67896861
0.67276393
0.69912458
0.76866527
0.87326309
0.99111715
1.09046
1.1448661
1.1458812
1.1073541
1.0550745
1.0138331
0.99954364
1.0123759
1.0397889
1.0637905
1.0776092
1.0809213
1.0785666
1.0757373
1.0756614
1.0749571
1.0669127
1.049501
1.0249747
0.99743771
0.96844747
0.9411555
0.91426801
0.88540201
0.85405239
0.82415012
0.79853258
0.77636044
0.75546299
0.73311296
0.70880964
0.68533749
0.67143015
0.67195794
0.68400653
0.69754678
0.70305532
0.69799767
0.69285352
0.71201022
0.77937423
0.90244933
1.0617877
1.2194319
1.328786
1.3570823
1.3019821
1.1949315
1.0826213
1.0046527
0.9804802
1.0025899
1.0447222
1.0772278
1.0882058
1.0800965
1.064461
1.0518676
1.0463659
1.0407207
1.0224164
0.98540705
0.93271391
0.87403238
0.819019
0.77764329
0.75147057
0.7357556
0.72370017
0.71212101
0.69990374
0.68735399
0.67712849
0.67124371
0.67009824
0.67275443
0.68331581
0.70730978
0.75164719
0.8225162
0.92267632
1.0447721
1.1704558
1.2781504
1.3472515
1.365682
1.3340062
1.2722536
1.205742
1.1560714
1.1335043
1.1366113
1.1523016
1.1640204
1.1634611
1.1511957
1.133063
1.1132403
1.0965529
1.0805415
1.0594488
1.0290342
0.99127122
0.94974502
0.90695307
0.86542143
0.82633132
0.79062063
0.7597002
0.73984169
0.73390263
0.73870232
0.74529517
0.74496977
0.73379645
0.71803336
0.71595496
0.74801633
0.8244257
0.93558885
1.0578876
1.1579436
1.209007
1.2042447
1.1605324
1.1058044
1.0648717
1.0523173
1.0662637
1.0923645
1.1124141
1.120514
1.1179462
1.1108206
1.1046262
1.1019983
1.0980538
1.0841439
1.0569723
1.019078
0.97686888
0.93562264
0.90229118
0.87652058
0.85257332
0.82345575
0.78753085
0.7475989
0.71030976
0.68540161
0.67864477
0.68694947
0.69791442
0.70033841
0.68803524
0.66743382
0.65840136
0.6874362
0.7714127
0.90599527
1.0665134
1.2140507
1.3116068
1.3394706
1.3079087
1.2452492
1.1840907
1.1468182
1.140192
1.1533015
1.1674833
1.1718606
1.1663599
1.1581617
1.153192
1.1567511
1.1641746
1.1654782
1.1521776
1.1241761
1.0861502
1.0441144
1.0043906
0.96873528
0.93354518
0.89190678
0.84346882
0.79153134
0.74341693
0.70760047
0.69091943
0.69187234
0.70033022
0.70424328
0.69496081
0.67288075
0.64896772
0.64602465
0.68479945
0.77459756
0.90794326
1.0627298
1.2067854
1.3103606
1.3598674
1.3586204
1.3222941
1.269535
1.2195901
1.1811556
1.1540626
1.1342037
1.1200668
1.1100612
1.1018817
1.095227
1.0884703
1.0784639
1.0611038
1.0392852
1.0154437
0.99105366
0.96590486
0.94030172
0.91266156
0.88143647
0.84928906
0.82035538
0.79688387
0.77647484
0.75793708
0.73874225
0.71868679
0.70121035
0.69268294
0.69552197
0.70521271
0.71401285
0.71445873
0.70526615
0.69387593
0.69994928
0.74050405
0.82149974
0.93309494
1.0529257
1.1513667
1.2040611
1.2058278
1.1695668
1.1182055
1.0722336
1.0475101
1.0447488
1.0543311
1.0644171
1.0693988
1.0679799
1.0612433
1.0527703
1.0437508
1.0318105
1.0116676
0.98357172
0.94790597
0.90575076
0.85878288
0.81129863
0.76743159
0.73135466
0.70887065
0.70295594
0.71028123
0.72038431
0.7243104
0.71647572
0.70091586
0.69236262
0.71169456
0.77294754
0.87415542
0.99770537
1.1147207
1.1965305
1.2253518
1.2069697
1.1603659
1.108941
1.0704036
1.0529486
1.0515414
1.0542807
1.0539186
1.0494939
1.0441222
1.039421
1.0385657
1.038395
1.033
1.0181906
0.99588929
0.96936429
0.94067978
0.9120398
0.88336495
0.85293792
0.8187441
0.78519171
0.75679296
0.73662355
0.72473814
0.71955193
0.71685767
0.71295858
0.70985089
0.71401245
0.73357507
0.77381691
0.83840577
0.92274468
1.0155151
1.1026138
1.172386
1.2157937
1.2289318
1.2169341
1.1894958
1.1569434
1.1257929
1.1037391
1.0921528
1.0881521
1.0872246
1.08737
1.0859778
1.0799864
1.0696961
1.0558819
1.0381394
1.0134568
0.98375047
0.94968133
0.91216937
0.8729956
0.83664922
0.80533269
0.77813013
0.75463651
0.73437734
0.71683468
0.70080168
0.68941397
0.68353721
0.68159477
0.68051251
0.67941908
0.6792869
0.68431104
0.70392801
0.74665833
0.81459427
0.89944088
0.98926294
1.067016
1.1190701
1.1416882
1.1432013
1.136464
1.1324769
1.1386045
1.1543309
1.1728626
1.1844112
1.1880286
1.1854641
1.180511
1.1764612
1.1759767
1.1765117
1.1721204
1.1599592
1.1397961
1.1125593
1.0776012
1.0382348
0.99553663
0.95014227
0.9035875
0.86038698
0.82323824
0.79162655
0.76450358
0.74030374
0.71830636
0.69892191
0.6871338
0.68508759
0.69029624
0.69651788
0.69882991
0.69621856
0.69509103
0.71125165
0.76044261
0.84854408
0.96425399
1.0868685
1.187941
1.2446899
1.2506745
1.2203821
1.1776886
1.1442762
1.1338896
1.1461321
1.1693101
1.1873229
1.1939839
1.1880309
1.1718588
1.1478075
1.1173895
1.0776597
1.0247461
0.96120369
0.89466559
0.83417092
0.78487407
0.75091605
0.72961456
0.71507167
0.70213827
0.69016651
0.67998299
0.6726173
0.67104249
0.67894763
0.70091112
0.74144039
0.80732214
0.89911769
1.0084684
1.118566
1.2098831
1.2643673
1.2721291
1.2395766
1.1844585
1.1276569
1.0834186
1.0615936
1.0595076
1.0675937
1.0763442
1.082743
1.0864846
1.0875923
1.0877297
1.0861551
1.0795238
1.062752
1.0374796
1.0049478
0.96604963
0.92113869
0.87255443
0.82296032
0.77668056
0.7415139
0.72365204
0.72285775
0.73012898
0.73519855
0.72893946
0.71119933
0.69410337
0.69915592
0.74486099
0.83619224
0.96229234
1.0973144
1.2101234
1.2757209
1.2893723
1.2606878
1.208777
1.1540934
1.1131111
1.0911211
1.0838506
1.0862045
1.0936718
1.1023898
1.1070602
1.1067542
1.0975537
1.0751065
1.0376039
0.98939109
0.93640223
0.88417222
0.83914089
0.80454723
0.77893905
0.75627913
0.73449548
0.71174568
0.68836788
0.66683772
0.65188849
0.64496319
0.64285028
0.64121122
0.63560467
0.6241851
0.60951966
0.60375769
0.62091104
0.67246491
0.76281959
0.88697318
1.0271416
1.1575453
1.2553809
1.3055039
1.3048195
1.2621207
1.1992982
1.1380601
1.093856
1.0725365
1.0720569
1.0826875
1.0925452
1.0963026
1.0942485
1.089384
1.0827181
1.0770757
1.0700798
1.0569726
1.0340538
1.0030044
0.96711864
0.92931717
0.89328676
0.86092234
0.83168512000000006
0.80289367
0.77627055
0.75316558
0.73446271
0.72001482000000006
0.71003362
0.70288001
0.69605355
0.68947216
0.68388966
0.6794839
0.67439851
0.67086807
0.67067421
0.67756001
0.69794607
0.73958996
0.80410195
0.8846896
0.97013268
1.0458835
1.0988937
1.1213545
1.1195131
1.1045274
1.0884906
1.0798889
1.0828419
1.0930254
1.1008928
1.1000042
1.0877217
1.0647782
1.0325019
0.99739028
0.96256926
0.92833986
0.89356448
0.8592928
0.8259825
0.79377516
0.76521439
0.74287132
0.72766428
0.71755602
0.71243639
0.71001774
0.70789616
0.70500021
0.70206816
0.70094792
0.70510842
0.72023493
0.75090628
0.79866424
0.86059785
0.93154348
1.0026588
1.065197
1.1138575
1.1470821
1.164265
1.1654183
1.1533836
1.1324417
1.1097467
1.0946086
1.097217
1.1185803
1.1483797
1.1683887
1.1608739
1.1179057
1.0489493
0.97953989
0.93554195
0.92641967
0.93541089
0.92598955
