0.58820973
0.62176125
0.62445021
0.60322553
0.58663943
0.59139046
0.60713598
0.61454307
0.61050857
0.60534896
0.60842529
0.61916703
0.62887628
0.63473998
0.64051018
0.64942356
0.66221783
0.67505203
0.68491961
0.6929558
0.6994047
0.70517865
0.71018993
0.7132318
0.71596307
0.71712469
0.71646913
0.71495315
0.71101226
0.70666865
0.70251209
0.69722916
0.69232206
0.68667143
0.68056936
0.67594096
0.67164643
0.66887244
0.66724281
0.66489359
0.6639231
0.6641901
0.66619624
0.6712549
0.67732525
0.68508831
0.69435141
0.70312115
0.71299534
0.72253678
0.73079924
0.73821304
0.74214376
0.74318816
0.74204849
0.73798028
0.73463531
0.73208965
0.72963861
0.72770532
0.72371086
0.7185701
0.71386647
0.70870522
0.70556093
0.70290434
0.69876849
0.69407844
0.68835811
0.68432015
0.68402186
0.68482844
0.68674058
0.68732343
0.68616175
0.68712104
0.6912896
0.69992571
0.71194124
0.72242657
0.73138872
0.73773869
0.7411517
0.74387521
0.74497264
0.7453319
0.74596661
0.74474294
0.74285202
0.73913937
0.73252282
0.72537234
0.71740148
0.70958155999999994
0.70294804
0.69554263
0.68930047
0.6843581
0.679571
0.67641708
0.67337298
0.67046491
0.66871723
0.66603332
0.66334537
0.66005314
0.65495374
0.65057036
0.64648576
0.64285393
0.64018024
0.63624566
0.63296125
0.63157356
0.63192267
0.63646487
0.64374508
0.65270589
0.66323046
0.67241979
0.68059572
0.68743079
0.691476
0.69505336
0.69740235
0.697814
0.69660302
0.69157259
0.68411732
0.67581697
0.66637692
0.65894949
0.65321657
0.64860939
0.64611982
0.64371373
0.64178495
0.64047518
0.6374538
0.63460429
0.63145648
0.62778244
0.62520347
0.62207575
0.61872714
0.61600512
0.61293899
0.61304892
0.61628407
0.62103833
0.62717732
0.63251885
0.63868308
0.64824825
0.65992079
0.67418081
0.68756735
0.69689818
0.70353801
0.7076202
0.71103765
0.71479075
0.71563662
0.71398596
0.7092669
0.70155323
0.69453332
0.68864645
0.68463676
0.68294631
0.68068965
0.67874429
0.67683687
0.67401051
0.67223989
0.67060806
0.66917758
0.66878962
0.667514
0.66669819
0.66656569
0.66659528
0.66960808
0.67543009
0.68410052
0.6954777
0.70578263
0.71461141
0.72140175
0.72548557
0.7300278
0.73425079
0.73670931
0.7366291
0.73144808
0.72360436
0.71551466
0.70679296
0.69920062
0.69116044
0.68263847
0.67616053
0.67072078
0.66654011
0.66272706
0.65751109
0.65460595
0.65462361
0.6562
0.65793843
0.65654374
0.65407268
0.65385173
0.65532009
0.659087
0.6620854
0.66359088
0.66725609
0.67346452
0.68220181
0.69122118
0.69654024
0.70132218
0.70689086
0.71262037
0.71750646
0.71755629
0.71371187
0.70968936
0.70589837
0.70386561
0.7005179
0.6932318
0.68475472
0.67659181
0.67110132
0.66899501
0.6668526
0.66539054
0.66405624
0.6618826
0.66063995
0.65961986
0.66011578
0.66369316
0.66762474
0.67118847
0.6720381
0.66911424
0.6666269
0.66645579
0.67011994
0.6774676
0.68444969
0.69121553
0.69772335
0.70344008
0.71029665
0.71619689
0.71972292
0.72107448
0.7188861
0.71570079
0.71242388
0.7073393
0.70135636
0.6930664
0.68322714
0.67482914
0.66743791
0.66218211
0.6584492
0.65405683
0.65135317
0.64989033
0.64882762
0.64820976
0.64582409
0.64353476
0.64299934
0.6424617
0.64230704
0.64020062
0.63628772
0.63443571
0.63541382
0.64027258
0.64751447
0.6532859
0.65949803
0.66655349
0.67476848
0.68496251
0.69426662
0.70246454
0.70984845
0.7140592
0.7163022
0.71502802
0.70959149
0.70284973
0.69525738
0.68850868
0.68339429
0.67735701
0.67214583
0.66772561
0.66375276
0.66194374
0.66051377
0.65902882
0.6577003
0.65443642
0.65111258
0.64749222
0.64243882
0.6376097
0.63254598
0.62899271
0.6292205
0.63169906
0.63715411
0.64391129
0.65006421
0.65762543
0.66606248
0.6755613
0.68593845
0.69372212
0.69928536
0.70237281
0.7022894
0.70152179
0.69928443
0.6955272
0.69146351
0.68603999
0.68164538
0.67885053
0.67542504
0.67207335
0.66754363
0.66283367
0.66071044
0.6594314
0.65824499
0.65568166
0.65060989
0.64741715
0.64675131
0.64656688
0.64473504
0.63865163
0.63276512
0.63255578
0.63806616
0.64785583
0.65579865
0.65950421
0.66308478
0.66903075
0.67924852
0.69141687
0.7002352
0.70707253
0.71288942
0.71843791
0.72433658
0.72718978
0.72694117
0.72523548
0.72129364
0.71749494
0.71264915
0.70583915
0.69939736
0.69285748
0.68674307
0.68103841
0.67335809
0.66655688
0.6618098
0.6591333
0.6596603
0.66083387
0.66207526
0.66409129
0.66524836
0.66748423
0.67017648
0.67196045
0.67452143
0.67702415
0.68025296
0.68509821
0.68909202
0.69320288
0.6965185
0.69761311
0.69857062
0.69874086
0.69885054
0.70019999
0.70068013
0.70156198
0.70262514
0.70241508
0.70285317
0.70268975
0.70145677
0.69994368
0.69629328
0.69216772
0.68816465
0.68304842
0.67854252
0.67336096
0.66737017
0.66250937
0.65865261
0.6586096
0.66319380000000006
0.66987942
0.67870375
0.68731301
0.69536402
0.70481781
0.71422303
0.72356458
0.73160242
0.7359979
0.73947355
0.74189052
0.74223821
0.74038163
0.73401234
0.72527405
0.71666153
0.7066802
0.69660863
0.6851346
0.67322688
0.66571898
0.6627651
0.66316124
0.66350435
0.65882897
0.65256983
0.64800418
0.64699232
0.65006671
0.65203814
0.65046316
0.64658476
0.64203671
0.64299527
0.65052386
0.66201146
0.67578088
0.68834172
0.70074582
0.71586614
0.73283057
0.7521123
0.76990632
0.78211552
0.78938379
0.79144272
0.79028758
0.78797196
0.78301006
0.77729599
0.77093378
0.76278469
0.75427211
0.74388451
0.73192879
0.72046657
0.70903834
0.70003398
0.69336879
0.68684463
0.68130417
0.67540966
0.66951302
0.66515092
0.66053255
0.65646085
0.65273444
0.6487351
0.64808806
0.65103204
0.65719071
0.66583255
0.67305727
0.67937229
0.68526861
0.68960475
0.69438563
0.69803007
0.70004875
0.70194048
0.70209011
0.70127754
0.6993042
0.69437734
0.68938658
0.68415411
0.67806331
0.67206926
0.66507405
0.65982547
0.65869786
0.65953393
0.6619718
0.66259314
0.66015405
0.65794008
0.65693514
0.65855426
0.66206078
0.66352975
0.66439236
0.66482288
0.66520821
0.66722765
0.668993
0.67087451
0.67407943
0.67758047
0.68380359
0.69173113
0.69941617
0.70715637
0.71280092
0.71639565
0.71839513
0.71659633
0.71268032
0.70670078
0.69868355
0.69161701
0.68531134
0.68021035
0.67650921
0.67123696
0.66547067
0.65938855
0.65274781
0.64801612
0.64390649
0.63963317
0.63540014
0.62960277
0.62479475
0.62175745
0.61891744
0.61695979
0.61437947
0.61240016
0.61416162
0.61910583
0.62778569
0.63806794
0.64691215
0.65611114
0.66530137
0.67433723
0.68311218
0.68862102
0.69190045
0.69400718
0.6940601
0.69368214
0.69111806
0.68576813
0.67963343
0.67236862
0.66585946
0.66074304
0.65525861
0.65151958
0.64890398
0.64658608
0.64509869
0.64234983
0.63926354
0.63712884
0.63477764
0.63409549
0.63369201
0.63226683
0.63120337
0.63001797
0.63076351
0.6348587
0.63989993
0.64669273
0.65314667
0.65786932
0.66264425
0.666868
0.67170553
0.67767139
0.68196855
0.68568852
0.68783094
0.68744068
0.68622183
0.68309459
0.67878871
0.67462992
0.66922542
0.66498987
0.66216499
0.65994834
0.6599267
0.66031947
0.66053081
0.66102238
0.66001174
0.65968685
0.66019402
0.65979392
0.65930018
0.65731847
0.65478559
0.65396664
0.65358261
0.65451533
0.65589523
0.65667792
0.6600514
0.66619246
0.6748085
0.68508294
0.69339673
0.70065069
0.70769655
0.71379211
0.7203409
0.72522593
0.72763823
0.72905355
0.72848398
0.72726838
0.7250976
0.71971678
0.71321993
0.70541213
0.69664137
0.68878569
0.68077735
0.67433948
0.67013756
0.66551445
0.66122194
0.65602814
0.65054239
0.64793076
0.64717613
0.64766711
0.64777242
0.64486138
0.64264123
0.64280767
0.64588369
0.65241241
0.6594419
0.66757429
0.6785161
0.69090214
0.70578446
0.71968483
0.72933136
0.73554441
0.73800385
0.73903644
0.74025697
0.73925609
0.73753136
0.73477459
0.73100582
0.72881743
0.72675554
0.72375267
0.71881037
0.70916445
0.6978943
0.68756984
0.6797852
0.67674872
0.67530907
0.67267823
0.66798844
0.66036174
0.65457077
0.65353312
0.65707635
0.66536395
0.67466132
0.68349121
0.69267207
0.70091091
0.70978394
0.71808926
0.72315339
0.7261255
0.72613602
0.72402386
0.72145072
0.71678981
0.71161328
0.70626104
0.6996438
0.69407758
0.6886815
0.6832478
0.67887603
0.67384615
0.66954535
0.66648358
0.66314004
0.66119808
0.65919238
0.6561599
0.65300159
0.64837242
0.6440897
0.64151996
0.63977769
0.64118776
0.64454582
0.64863241
0.65391167
0.65849386
0.66363091
0.6700641
0.67557653
0.68134835
0.68575548
0.68812937
0.69030452
0.69099708
0.69061653
0.68937605
0.68544783
0.68202422
0.67927681
0.67606524
0.67279366
0.66761786
0.66216711
0.65889774
0.65630191
0.65490744
0.65223636
0.64679127
0.6415674
0.63748847
0.63587719
0.63653258
0.6359258
0.63526418
0.63536489
0.63709639
0.64288052
0.65062792
0.6588435
0.66705394
0.67351488
0.68092185
0.68952149
0.69707935
0.70298118
0.7042214
0.7010744
0.69648126
0.69091091
0.68684497
0.68357597
0.67857038
0.67310759
0.66671618
0.66030922
0.65538869
0.65001391
0.64506342
0.64057642
0.63551338
0.63213722
0.62972294
0.6279157
0.62742294
0.62640148
0.6261856
0.62747893
0.62915477
0.63307353
0.63778854
0.64229366
0.64728618
0.65112856
0.6552148
0.66000451
0.66342681
0.66676533
0.66856395
0.66826055
0.66741846
0.66489621
0.66188356
0.6590922
0.65490517
0.65181591
0.64951857
0.64737505
0.64636494
0.64454028
0.64249246
0.64143269
0.64007646
0.64086305
0.64281254
0.64409184
0.64510147
0.64416122
0.64230752
0.64105811
0.63887232
0.63752179
0.63644418
0.63533976
0.63675565
0.64020030000000006
0.64599637
0.65396407
0.66125913
0.66919169
0.67731687
0.68432899
0.69079005
0.69443427
0.69527392
0.69498864
0.69319185
0.69240598
0.69225998
0.69057708
0.68791548
0.68273605
0.67564932
0.66877317
0.66145893
0.65585465
0.65181221
0.64724149
0.64321109
0.63874332
0.6344836
0.63186799
0.62837231
0.62380061
0.6177889
0.61062388
0.60711399
0.60789555
0.61144618
0.61586506
0.61773538
0.61968592
0.62474608
0.63227979
0.64247149
0.65189719
0.65982506
0.66918603
0.67924424
0.68894269
0.69469699
0.69263442
0.68677465
0.68082594
0.67748102
0.67775625
0.67761501
0.67608908
0.674006
0.67088181
0.66989358
0.67084456
0.67332384
0.67884751
0.68531627
0.69153615
0.69615334
0.69643781
0.69541784
0.69416883
0.69256653
0.69113584
0.68741132
0.68208162
0.67746456
0.67359766
0.67326224
0.67538476
0.67798688
0.68173191
0.68518027
0.68900419
0.69388633
0.69749533
0.70095848
0.70341459
0.7037134
0.70339252
0.70111247
0.69699234
0.69182204
0.68391305
0.67573497
0.66815151
0.66072591
0.65541206
0.65046116
0.6452557
0.64049455
0.63442429
0.6291545
0.62511933
0.62091131
0.61791238
0.61437335
0.6099575
0.60637944
0.60330359
0.6035916
0.60774906
0.613271
0.62041767
0.62753834
0.63559554
0.64753231
0.66236899
0.67981713
0.69698613
0.70965753
0.71904629
0.72527585
0.7294361
0.73327534
0.73482163
0.73473856
0.73369266
0.73058761
0.72786225
0.72463335
0.71983994
0.71426929
0.70632665
0.6972668
0.68849344
0.67901655
0.67109127
0.66362787
0.65517956
0.64677587
0.63807062
0.63182626
0.63045019
0.63208071
0.6371122
0.642866
0.64779338
0.65396336
0.66100683
0.66968014
0.67931907
0.68600105
0.69054066
0.69242201
0.69174276
0.69094435
0.68889987
0.6859147
0.68258676
0.67707683
0.67176386
0.66672548
0.66109252
0.65662721
0.65242044
0.64932346
0.64850891
0.64745387
0.64646143
0.64448826
0.64081784
0.63849304
0.6373678
0.63699916
0.63674467
0.63390787
0.63075716
0.62917091
0.62932112
0.63277732
0.63721016
0.64174041
0.6475423
0.65358037
0.66132812
0.66974567
0.67571699
0.67994892
0.68161252
0.68168689
0.68227855
0.6815799
0.67970279
0.67598626
0.66910596
0.66251122
0.65696235
0.65258626
0.64979336
0.64593033
0.64182289
0.63864588
0.6354468
0.63415735
0.6334306
0.63236564
0.63227164
0.6318514
0.63184207
0.63254505
0.63244516
0.63450461
0.6390442
0.64563852
0.65450783
0.6625802
0.66950684
0.67570674
0.67956839
0.68337005
0.68621623
0.68702729
0.68708892
0.68533005
0.68286715
0.68075261
0.67694947
0.67307745
0.66857003
0.66289722
0.65835009
0.65428474
0.65114754
0.64922216
0.64584176
0.64236464
0.63871546
0.63443939
0.63157018
0.62892033
0.62637538
0.62446987
0.62143158
0.61941862
0.61898881
0.61956855
0.62278953
0.62698163
0.63175578
0.63784373
0.64380311
0.6516046
0.66111504
0.67018627
0.67887714
0.68446017
0.68620662
0.68569988
0.68279678
0.68041697
0.67932474
0.67759094
0.67592257
0.67255859
0.66741087
0.66253034
0.65725199
0.65304635
0.64960591
0.64433679
0.63860537
0.63225281
0.62640833
0.62329322
0.62091637
0.61863439
0.61564414
0.61094528
0.60870325
0.61003994
0.61429043
0.62049039
0.62501511
0.62866745
0.63365501
0.63986412
0.64931184
0.65961197
0.66834837
0.67579169
0.68019648
0.68216226
0.68214871
0.6785589
0.67469945
0.67147556
0.66890521
0.6678622
0.66569682
0.66209647
0.65806153
0.65268255
0.6488113
0.64623844
0.64348509
0.64118795
0.63764174
0.63338426
0.62977475
0.62543349
0.62218228
0.61970703
0.61724963
0.61684238
0.6176856
0.61996459
0.62394031
0.62721392
0.63132081
0.63638443
0.64167274
0.64875641
0.65584313
0.66224084
0.66819294
0.67159927
0.67388715
0.67494259
0.67334049
0.67077433
0.66646702
0.66111624
0.65675002
0.65224394
0.64904405
0.64718793
0.64571031
0.64378241
0.63970189
0.63573378
0.63478666
0.63546061
0.63422706
0.62793902
0.6209014
0.62239108
0.63188143
0.63785254
0.62947175
0.61315168
0.61275827
0.63917862
0.6705854
0.67236498
0.6390663
0.61673864
0.6581793
