0.84464536
0.8625621
0.91627342
0.97660987
1.0161481
1.0246613
1.0097525
0.98869251
0.97748597
0.98304858
1.0003981
1.0170097
1.022167
1.0119198
0.98896177
0.95837816
0.92681484
0.89845655
0.87498074
0.85604626
0.84407728
0.84171131
0.8503967
0.86851644
0.89361941
0.92124294
0.94637284
0.96558547
0.9793184
0.98966241
0.99851355
1.00772
1.0185913
1.0305915
1.0403331
1.0465585
1.0476199
1.0426951
1.0308747
1.0162223
1.0012803
0.98724255
0.97309259
0.95971484
0.94633445
0.93241511
0.91940072
0.91201958
0.9135243
0.92421887
0.9431304
0.96755837
0.99231879
1.0110629
1.022126
1.0264186
1.026496
1.0240632
1.0237267
1.0270364
1.0329061
1.0372725
1.0389922
1.0360384
1.0272028
1.0125137
0.99538407
0.97784588
0.96022832
0.94279473
0.92662557
0.91167411
0.89721903
0.88555948
0.87982288
0.88188489
0.89061451
0.90638735
0.92722061
0.94999238
0.97008228
0.9880907
1.0038316
1.0173156
1.0278231
1.0370803
1.0448874
1.0502838
1.0529949
1.0549729
1.0569241
1.0577915
1.0570248
1.0541515
1.0475697
1.0348697
1.0177078
0.99890275
0.98139718
0.96610178
0.95681087
0.95443942
0.95801722
0.96423378
0.97331136
0.98380991
0.99407648
1.0026236
1.0107011
1.0180736
1.023397
1.0259118
1.0260257
1.0230453
1.0152093
1.0028747
0.98710421
0.96862873
0.94696758
0.92504724
0.90531053
0.88984996
0.87863432
0.87538714
0.88094256
0.89445795
0.91307348
0.936276
0.96141873
0.98517268
1.0052283
1.0222282
1.0361413
1.0461701
1.0530077
1.0578434
1.0604395
1.0589381
1.0539689
1.0460908
1.0355223
1.0210835
1.0049973
0.98802718
0.97033095
0.95081278
0.93214146
0.91566179
0.90247458
0.89360256
0.89233797
0.89949633
0.91345487
0.93202134
0.95338962
0.97412805
0.98992596
0.99980307
1.0048728
1.0069174
1.0068158
1.0081937
1.0127494
1.0199239
1.0255376
1.0285841
1.0265006
1.0175076
1.0007647
0.98012857
0.95860229
0.93810966
0.91982321
0.9053791
0.89395078
0.88333468
0.8734093
0.86580482
0.8620573
0.86266022
0.87010663
0.88529173
0.90695981
0.93091231
0.95597494
0.97979494
1.0002536
1.0148135
1.025489
1.0332994
1.0388738
1.04234
1.0459269
1.0497055
1.0520048
1.0516834
1.049397
1.0453477
1.0392102
1.0331875
1.0294615
1.0281181
1.0259939
1.0218386
1.0134461
0.99934322
0.97823077
0.95473425
0.93215376
0.91244439
0.89494818
0.88037102
0.86735371000000006
0.85476846
0.84370838
0.83892642
0.84404444
0.85969114
0.88468346
0.91585611
0.94775843
0.97424586
0.99403586
1.0084226
1.0198167
1.0289628
1.0388703
1.0494884
1.0592798
1.0654649
1.0696692
1.0723276
1.0731084
1.0706206
1.0650624
1.0547041
1.0375494
1.0142356
0.98868704
0.96463856
0.94421737
0.9303013
0.92433977
0.92552832
0.93079623
0.94013584
0.95283286
0.96759798
0.98104812
0.99335423
1.0031127
1.0093071
1.0113182
1.0122836
1.0138392
1.0157145
1.0161891
1.0142394
1.0075327
0.99384146
0.97455044
0.95407482
0.93680374
0.92492218
0.92129436
0.9260756
0.9367979
0.94832869
0.9598169
0.9700371
0.97838465
0.98352991
0.98821867
0.99307541
0.99769719
1.0010598
1.0043243
1.0064858
1.0050019
0.99795017
0.98522244
0.96689844
0.94372135
0.92005658
0.90135154
0.89164439
0.89141915
0.90150489
0.91958911
0.94167879
0.96201717
0.98030346
0.99575454
1.0081446
1.0167459
1.0238177
1.0295644
1.0331971
1.0344082000000001
1.035204
1.036235
1.0366488
1.0364633
1.0362779
1.0358527
1.034049
1.0325647
1.0327331
1.034405
1.0344262
1.03194
1.024466
1.0100461
0.98738194
0.96094886
0.93479833
0.91230272
0.89529499
0.88629889
0.88467407
0.88799026
0.89481419
0.90578085
0.92074021
0.93796824
0.95683136
0.97621551
0.99381588
1.0060615
1.0135328
1.0173701
1.0191735
1.0187108
1.019277
1.020956
1.0221022
1.0195372
1.0129967
1.0011854
0.98319699
0.95993643
0.93545859
0.91310952
0.89495501
0.88373979
0.88171919
0.8885891
0.90118627
0.91811281
0.93732483
0.95622508
0.97092334
0.98216069
0.9902706
0.99597948
0.99909765
1.0029069
1.0081678
1.0138121
1.0174855
1.0191091
1.0180531
1.0142592
1.0097763
1.008122
1.0104762
1.0144326
1.0172469
1.0153213
1.0051117
0.9841718
0.95667034
0.92870863
0.90676814
0.89392542
0.89432385
0.90637562
0.92511674
0.94372102
0.95954797
0.97073463
0.97730714
0.98133348
0.98699724
0.99577849
1.0058719
1.0149993
1.0213712
1.0236943
1.0216305
1.0189849
1.019121
1.0224352
1.0241298
1.0203496
1.005933
0.97859678
0.94011234
0.90081247
0.87092821
0.85740738
0.86105641
0.8789446
0.90266863
0.92299016
0.93539583
0.94196283
0.94706621
0.9539954
0.9654763
0.98094458
0.99656937
1.0069982
1.0118881
1.0126932
1.0116595
1.008498
1.0045325
0.99725046
0.98323471
0.95997762
0.93102536
0.90116008
0.87555211
0.85869726
0.85433371
0.86156032
0.87576717
0.89290145
0.9104491
0.92648982
0.93935588
0.95114283
0.96389955
0.97843031
0.99285703
1.0077575
1.0217269
1.0329229
1.0389236
1.0415685
1.0419959
1.040998
1.0385849
1.0360455
1.0319294
1.0229394
1.0068096
0.98411793
0.95652329
0.92657198
0.90017519
0.88329733
0.87908244
0.88599215
0.90239538
0.92371416
0.94460688
0.95935989
0.96894122
0.97478075
0.97905903
0.98284532
0.98847933
0.99495066
0.99924561
0.99842952
0.9920646
0.97978796
0.96137486
0.93894923
0.91619681
0.89637455
0.88139955
0.87510454
0.87943208
0.89322041
0.91104444
0.92991135
0.94601125
0.95746642
0.96407146
0.97135442
0.98251637
0.99720387
1.0109785
1.0193141
1.0166082
1.0001384
0.97354312
0.9461941
0.92740897
0.92218623
0.93113696
0.94876924
0.96522376
0.96977373
0.95898781
0.93474634
0.90360934
0.87248768
0.85117226
0.8439263
0.85021193
0.86531952
0.88622698
0.90850425
0.92821901
0.94335841
0.95529954
0.96486547
0.97202195
0.9778878
0.98401
0.99047752
0.99548747
0.99917369
1.0012189
1.0006143
0.99461799
0.98415833
0.96905427
0.94904956
0.92311817
0.8948057
0.86663326
0.8409043
0.81956732
0.8065334
0.80300601
0.80785495
0.81955228
0.83716637
0.85838444
0.87990889
0.90097159
0.92178831
0.94240527
0.96164814
0.98093968
1.0002143
1.0179517
1.0299335
1.0355888
1.0331882
1.0217966
1.0012771
0.97620372
0.95062056
0.92789286
0.91090817
0.9031669
0.90507264
0.91421254
0.92855122
0.94659005
0.96603428
0.98365884
0.99946394
1.0135863
1.0255372
1.032933
1.0365465
1.0357296
1.0296244
1.0166982
0.99931227
0.97878827
0.95607912
0.93187252
0.9093119
0.89044272
0.87653126
0.86953901
0.87227682
0.88517085
0.90550069
0.93079114
0.95793937
0.98314861
1.0020932
1.015368
1.0242179
1.0301036
1.0323852
1.033958
1.035054
1.0352135
1.0334702
1.0320208
1.0314105
1.0306799
1.0280401
1.0226397
1.0121927
0.99413837
0.96914905
0.94091557
0.91382329
0.89128179
0.87843276
0.8780076
0.88934894
0.90753199
0.92999436
0.95269856
0.97229088
0.98585522
0.99580477
1.0036893
1.0103461
1.0155665
1.0206334
1.0250631
1.027649
1.0284369
1.0289225
1.0289627
1.0259608
1.0182718
1.0044864
0.9837855
0.95624948
0.92775806
0.90465465
0.89197469
0.88999167
0.89964004
0.91684606
0.93586947
0.95106452
0.96226853
0.96994556
0.97506753
0.97892622
0.98383638
0.98968941
0.99478106
0.99889704
1.0030536
1.0074627
1.0104493
1.01175
1.0100656
1.0033496
0.98863401
0.96818323
0.94474471
0.9218934
0.90207944
0.89056476
0.88897961
0.89614589
0.90882679
0.92540589
0.94269015
0.95726939
0.96791676
0.97608206
0.98273209
0.98762545
0.99213532
0.99737301
1.0031407
1.0074704
1.0110147
1.0134314
1.0135576
1.0081074
0.99781962
0.9823539
0.96224657
0.93879563
0.91745826
0.90216649
0.89489985
0.8959477
0.90540573
0.92036883
0.93616241
0.95017841
0.96206584
0.97190846
0.97926737
0.986292
0.99409383
1.0020657
1.0072593
1.0099954
1.0101067
1.0082108
1.0046782
1.003179
1.0045526
1.0069227
1.0062047
1.0000498
0.98583943
0.96279638
0.9344435
0.90819648
0.89045496
0.8838852
0.88934868
0.90429557
0.92319237
0.93901553
0.95024787
0.95746313
0.96287193
0.96721502
0.97443266
0.98471225
0.99611689
1.0050638
1.010926
1.0120907
1.0067793
0.99401224
0.97515599
0.9511085
0.92276767
0.89360397
0.86857476
0.85141556
0.84311107
0.84519827
0.85685634
0.87513267
0.89481685
0.91492705
0.93419776
0.95203625
0.96723377
0.98250772
0.99842844
1.0143002
1.0285859
1.0420267
1.05386
1.0625666
1.0677243
1.0705916
1.0713289
1.0685791
1.0624624
1.0530912
1.0398273
1.0209902
0.99855262
0.97448123
0.95088277
0.92821429
0.91059033
0.89939099
0.89446144
0.89388548
0.89818699
0.90596864
0.91512724
0.92421777
0.93426977
0.94525973
0.9559826
0.96628385
0.97668457
0.98658949
0.99391675
0.99923119
1.0033214
1.00666
1.0079948
1.0095173
1.011676
1.0138939
1.0136857
1.0117104
1.0065687
0.99634233
0.97954092
0.95811786
0.93375341
0.90834188
0.88543466
0.8696926
0.86329199
0.86514776
0.87431723
0.8888773
0.90588205
0.9216021
0.93672083
0.95221052
0.96877501
0.98451267
1.0004853
1.0151122
1.0262431
1.0316083
1.0332115
1.0325289
1.030581
1.0282521
1.0274889
1.0280205
1.0279034
1.0264188
1.0236121
1.0185662
1.0089778
0.99512966
0.97742548
0.95654966
0.93269113
0.9106392
0.89404834
0.88532978
0.8839118
0.89093843
0.90414816
0.91989748
0.93455102
0.94806299
0.96018191
0.97052526
0.97966284
0.98922764
0.9990566
1.0070553
1.0128058
1.016572
1.0185202
1.0179329
1.0171448
1.0170896
1.0171287
1.0136817
1.0064927
0.9936371
0.97399519
0.94762351
0.91935925
0.89331385
0.87252317
0.85905706
0.85502088
0.85938457
0.86887716
0.88153279
0.89673466
0.9135525
0.93006511
0.9468349
0.96377997
0.97968532
0.99155168
0.99996375
1.0050964
1.0076699
1.0078739
1.0089017
1.0112598
1.0132588
1.0116148
1.0047587
0.99050305
0.96772608
0.93874943
0.9092222
0.8841541
0.86604662
0.85710891
0.85731135
0.86403677
0.87254523
0.88199682
0.89182656
0.90178271
0.90990217
0.9181131
0.92624396
0.93388049
0.94038032
0.94810521
0.95750187
0.96704593
0.97394188
0.97606709
0.97046611
0.95490058
0.93099349
0.90327953
0.87619003
0.85190359
0.83325616
0.82092917
0.81395593
0.80975317
0.81035609
0.81714326
0.83084395
0.8496203
0.87368294
0.90011781
0.92512664
0.94561217
0.96253516
0.97678307
0.98888906
0.99961393
1.009649
1.0172632
1.0187873
1.0125681
0.99838417
0.97684442
0.9484327
0.91736884
0.88724351
0.86067585
0.83756645
0.82100992
0.81163292
0.80920798
0.81248147
0.82305569
0.8405312
0.86306747
0.88835527
0.91534406
0.94131334
0.96270485
0.97808027
0.98806873
0.9936932
0.99552148
0.99617304
0.99705181
0.99740713
0.99345498
0.98397179
0.9673454
0.9435157
0.91362222
0.88423154
0.860812
0.84700346
0.84368074
0.85137309
0.86691981
0.88532143
0.90305693
0.91941935
0.93387236
0.94537198
0.95488886
0.96332257
0.97047512
0.97478163
0.97770435
0.98021227
0.9826209
0.98287474
0.98151707
0.97685381
0.966816
0.94944787
0.92707784
0.90204896
0.87682471
0.85424238
0.83835987
0.83068717
0.8302023
0.83623603
0.84832284
0.86471738
0.88222563
0.90041051
0.91879242
0.93643265
0.95092923
0.96338495
0.97370504
0.98147444
0.98515919
0.98655471
0.9857654
0.98195835
0.9736602
0.96165163
0.94564232
0.925124
0.90146608
0.87841222
0.85902028
0.84473675
0.83800317
0.84022048
0.85064363
0.86598849
0.88526463
0.90633737
0.92665106
0.94236637
0.95438053
0.96293983
0.96903116
0.97355635
0.97992507
0.98854192
0.99683691
1.0005752
0.99694187
0.98341745
0.95942659
0.92921719
0.90040378
0.87986847
0.87072037
0.87459628
0.88894124
0.90812297
0.9247438
0.93689265
0.94428918
0.94876044
0.95193473
0.95818028
0.96798079
0.97869598
0.98568846
0.98652838
0.97860241
0.96064258
0.93469189
0.90618827
0.88022895
0.85996696
0.84859656000000006
0.84749651
0.85535625
0.86811827
0.88420211
0.90154229
0.91830181
0.93162169
0.94330501
0.95378659
0.96329018
0.97123055
0.97968171
0.988284
0.99487599
0.99684087
0.99342944
0.98334815
0.96578471
0.94318792
0.92048716
0.90225179
0.89090243
0.88925115
0.89741803
0.91279791
0.93000187
0.94714223
0.96207029
0.97362857
0.98055348
0.98564537
0.98962092
0.99165847
0.9897628
0.98405051
0.97352527
0.9573593
0.93702495
0.91676382
0.90035376
0.88990671
0.88774882
0.89437704
0.90757345
0.92245928
0.93696239
0.9492903
0.95880455
0.96447815
0.96979553
0.97583882
0.98183656
0.98471809
0.98360504
0.9762547
0.96107018
0.93896218
0.91493596
0.89381393
0.87896872
0.87338885
0.87837885
0.89171154
0.90806963
0.92427439
0.93815124
0.94900759
0.9564707
0.96429888
0.9740218
0.98456814
0.99127496
0.99178761
0.9827325
0.96273859
0.93372369
0.90295317
0.8770405
0.85999706
0.85332646
0.85650684
0.86574102
0.87577969
0.88486634
0.89379565
0.90404191
0.91552264
0.92980821
0.94594558
0.96146433
0.97237699
0.97980025
0.98449394
0.98762866
0.98938707
0.9914271
0.99212854
0.98797452
0.97588751
0.95623031
0.93053574
0.90152175
0.87462278
0.85605538
0.84939887
0.85397335
0.86869854
0.89012241
0.91337334
0.93252521
0.94717657
0.95771006
0.96572128
0.97287322
0.98132841
0.99033582
0.99796575
1.0027873
1.0046563
1.0027143
0.9954486
0.981702
0.96063954
0.9325177
0.90034099
0.87110104
0.85134646
0.84377352
0.84539875
0.85095778
0.85432025
0.85411253
0.8554831
0.86933228
0.90155818
0.94782367
0.99302587
1.0190583
1.0140205
0.98297219
0.94949053
0.94400723
0.98394348
1.0588466
1.1294472
1.1408936
