0.78722006
0.75794013
0.76540163
0.79653484
0.82983336
0.84849075
0.84626563
0.82820759
0.80559849
0.79131487
0.7939482
0.81505667
0.84969982
0.89096218
0.93323307
0.97332296
1.0100934
1.0443463
1.0779334
1.1117864
1.1451138
1.1762297
1.2039621
1.2268059
1.2429835
1.2512906
1.2532022
1.2510171
1.2471777
1.2434118
1.2422927
1.2445101
1.2488097
1.2520061
1.252619
1.2492054
1.2406897
1.2255307
1.2057109
1.1819751
1.1549999
1.1241647
1.0924813
1.0613514
1.0317672
1.0023677
0.97519704
0.95052926
0.92857631
0.90799515
0.8905865
0.87677019
0.86632115
0.85725119
0.85018829
0.84561352
0.84465357
0.84817251
0.86005855
0.88347751
0.91963851
0.96620491
1.0203803
1.0771951
1.1300025
1.1716692
1.199061
1.2125419
1.2145324
1.2085331
1.2000496
1.1946606
1.1945017
1.1980492
1.2024146
1.2055385
1.2045409
1.1974561
1.1846706
1.1705231
1.1582183
1.14937
1.143251
1.1396902
1.1353172
1.1260259
1.1079295
1.0823577
1.0513186
1.0182259
0.98566565
0.95877075
0.93939005
0.92730599
0.91908563
0.91401061
0.90993825
0.90549537
0.89900379
0.89267638
0.88806426
0.88641034
0.8871417
0.8916258
0.89988143
0.91137877
0.92444959
0.94020938
0.95927521
0.98144618
1.0047815
1.0287476
1.0519614
1.0720321
1.0859218
1.0932454
1.0950697
1.0924841
1.0860854
1.077787
1.0701021
1.0638155
1.0581442
1.052569
1.0480505
1.0438773
1.0381818
1.0290005
1.0167887
1.0011199
0.98193282
0.95975653
0.93827845
0.91945736
0.90379747
0.8895435
0.8765663
0.86298749
0.84747409
0.82899
0.81110529
0.7964839
0.78707001
0.78158985
0.78030335
0.78065436
0.78002459
0.77552865
0.76896678
0.76211935
0.7567372
0.75244573
0.75093655
0.75291341
0.75962203
0.77236736
0.79635097
0.83584274
0.89169427
0.95875784
1.0296487
1.0945602
1.1435552
1.1693082
1.1720339
1.1580909
1.1356917
1.1112663
1.0890432
1.0703784
1.0525627
1.0314336
1.005248
0.97697234
0.95056131
0.92944356
0.91516824
0.90840922
0.90600958
0.9032813
0.89603281
0.88471532
0.87082425
0.85684411
0.84442479
0.83689116
0.83510859
0.83907616
0.84769866
0.86321365
0.88666323
0.91840804
0.95596082
0.99839476
1.0422703
1.0839734
1.1193927
1.1488289
1.172916
1.1926898
1.2072863
1.2181712
1.2254792
1.2288924
1.2268932
1.2217409
1.2157946
1.2105682
1.2050853
1.1994747
1.192963
1.1835051
1.1681963
1.1470647
1.1224266
1.0968309
1.0720941
1.0504306
1.0338834
1.0217778
1.0111443
0.99893575
0.98424675
0.96641857
0.94576177
0.92385283
0.90451749
0.88954952
0.87862063
0.86946621
0.86146565
0.85359478
0.84653807
0.84264792
0.84844478
0.86864811
0.90522429
0.95501108
1.0142809
1.075193
1.1299469
1.171299
1.200386
1.2197255
1.2334615
1.2432024
1.252594
1.2610395
1.2659366
1.2627432
1.2520337
1.2354153
1.2155794
1.1938872
1.1739216
1.1573953
1.1440106
1.1312585
1.1188628
1.1069598
1.0949653
1.0808288
1.0638485
1.0441162
1.021586
0.99643101
0.97096073
0.94882102
0.93161255
0.91811361
0.90563206
0.89220886
0.87604615
0.85766658
0.84114842
0.83467843
0.84508682
0.87557306
0.92395612
0.98509002
1.0493927
1.1068887
1.1499097
1.1782061
1.1942008
1.2025351
1.2066305
1.2117004
1.2184137
1.2253461
1.2284861
1.2289563
1.2268291
1.2228773
1.216005
1.2084018
1.1996943
1.1886391
1.1724964
1.1527408
1.1309612
1.1090412
1.0874337
1.0684592
1.0527543
1.0392017
1.0248309
1.0087527
0.99081542
0.97115943
0.94979645
0.92857929
0.9096438
0.89362808
0.87940457
0.86602724
0.85318775
0.84018954
0.82669048999999994
0.81412019
0.80602373
0.80516281
0.81291884
0.82945082
0.85499443
0.88692326
0.92117381
0.95344618
0.98333606
1.00997
1.032991
1.0514731
1.0677066
1.081391
1.0911986
1.0938357
1.0905099
1.0810004
1.0657458
1.0436554
1.018828
0.99339114
0.96931999
0.94634598
0.92749138
0.91323129
0.90245398
0.8912876
0.87871873
0.8636665
0.84636722
0.82755678
0.81131046
0.80049659
0.7949568
0.79045646
0.78293883
0.76962008
0.75130724
0.73359413
0.72784056
0.74630153
0.79560667
0.87250442
0.96479553
1.054796
1.124221
1.1612035
1.1658039
1.1502801
1.1317674
1.1253241
1.1384783
1.1704904
1.2109551
1.2458134
1.2635765
1.2626583
1.2472149
1.2252502
1.2035248
1.1884852
1.1796889
1.1725444
1.1598576
1.1401424
1.1133614
1.0820989
1.0478973
1.0156965
0.98683029
0.96078272
0.93442206
0.90841624
0.88334334
0.86057144
0.84029122
0.82497334
0.81538197
0.81069783
0.80786794
0.80568799
0.80321246
0.80002949
0.79585121
0.79331487999999994
0.7959569
0.80679148999999994
0.82699747
0.85802114
0.89993499
0.95016046
1.0039218
1.0572487
1.1075295
1.1519346
1.1877958
1.2143168
1.2332487
1.2455804
1.2518371
1.2528903
1.2518642
1.2500574
1.2476427
1.243771
1.2398618
1.235068
1.2277061
1.2151155
1.1985101
1.1782229
1.1552539
1.1298456
1.1059947
1.0854168
1.0684957
1.0524185
1.0368971
1.0197432
0.99938125
0.97419795
0.94721389
0.92153162
0.90026629
0.88444378
0.87613084
0.8752722
0.88056015
0.88935033
0.90147087
0.916984
0.93571677
0.95609046
0.9778122
1.0000527
1.0212507
1.0392037
1.0544274
1.0688028999999999
1.0835158
1.0981635
1.1127548
1.1275231
1.1410397
1.1511138
1.1570458
1.1605909
1.1622135
1.1609693
1.1551751
1.1448888
1.1287525
1.1058653
1.0765675
1.0454332
1.0157966
0.98970002
0.96658242
0.94717418
0.92959196
0.91198816
0.89253851
0.87416025
0.85876824
0.84760688
0.83884482
0.83251221
0.82643516
0.81928228
0.81051174
0.80489899
0.80732901
0.82176869
0.84826605
0.88584176
0.92957648
0.97289965
1.0090148
1.036202
1.0554092
1.0693252
1.0799395
1.0905882
1.1029904
1.1164555
1.1280552
1.1367245
1.1427195
1.145848
1.1448603
1.1394661
1.1302473
1.116492
1.0969288
1.0718758
1.0445509
1.017458
0.99213019
0.96919044
0.95023645
0.93424458
0.9188919
0.90147509
0.88285849
0.86374395
0.84544429
0.82867374
0.81629803
0.80840706
0.80326797
0.79686855
0.78818928
0.77616776
0.76208267
0.7483549
0.7427245
0.7517356
0.78009408
0.82746117
0.89218543
0.96728398
1.0431789
1.1089248
1.1588792
1.1903849
1.2046609
1.2048941
1.1985913
1.1923637
1.1901635
1.1917079
1.1965203
1.2027551
1.2076431
1.2081021
1.2043469
1.198581
1.1924154
1.1856531
1.1778131
1.1682495
1.1543698
1.1328408
1.1021364
1.0644961
1.0230918
0.98173313
0.94435925
0.9158597
0.89784604
0.88896515
0.88535969
0.88452226
0.88284459
0.87752661
0.86669373
0.85283114
0.83845587
0.82639165
0.81803426
0.81687883
0.82400853
0.83942821
0.86064228
0.88844649
0.92142287
0.95780824
0.99388283
1.0297772
1.0641491
1.0956828
1.1217487
1.1438294
1.1627693
1.1789615
1.1907062
1.1988667
1.2033707
1.2032538
1.1962241
1.1831945
1.1662256
1.1473987
1.1278707
1.1103352
1.0972108
1.0884393
1.0813359
1.0732771
1.0627112
1.0477753
1.0271261
1.0015137
0.97460701
0.94939149
0.92763032
0.90993048
0.8976718
0.89016035
0.88603032
0.88403318
0.88611174
0.89367735
0.90790348
0.92857685
0.9569415
0.99160602
1.0299539
1.067746
1.1043388
1.1382425
1.1687299
1.1936986
1.2155513
1.2344003
1.2496802
1.2583296
1.2612331
1.2580808
1.2491225
1.2338166
1.216078
1.1990712
1.1849924
1.1732359
1.164801
1.1591623
1.1545959
1.1479931
1.139249
1.1292582
1.1185649
1.1063355
1.0929462
1.0789789
1.0638002
1.0458397
1.0250581
1.0032188
0.98135509
0.95952721
0.9380288
0.9187633
0.9029479
0.89188789
0.8876577
0.89437716
0.91392869
0.9455428
0.98551043
1.0303912
1.0743981
1.112087
1.1393421
1.1576713
1.1689066
1.175504
1.1782167
1.1807175
1.1836207
1.1869239
1.1886948
1.1921203
1.1983403
1.207833
1.2178773
1.2284468
1.2369539
1.2404999
1.2354636
1.2236048
1.2076244
1.1909436
1.1753453
1.1641302
1.15806
1.1550939
1.1504223
1.1412135
1.1259027
1.1042644
1.0771781
1.0485267
1.0229046
1.0027845
0.98754188
0.97538217
0.96436472
0.95211277
0.93739989
0.92210588
0.91144213
0.90994732
0.91996478
0.94117088
0.97204645
1.0076281
1.0420836
1.0707657
1.0943346
1.1139778
1.1313296
1.1464733
1.1616932
1.1759594
1.1872458
1.1922007
1.1927189
1.1895396
1.1835101
1.1726974
1.15919
1.1423253
1.1216365
1.0957258
1.0685826
1.0432368
1.0219173
1.0035983
0.98880346
0.97582015
0.96246188
0.94625002
0.92898795
0.91312305
0.90041878
0.8901956
0.88211719
0.87491028
0.86705952
0.85795214
0.85097223
0.85186499
0.86569377
0.89462828
0.93823719
0.99313474
1.0524099
1.1078815
1.1536682
1.1881705
1.2117465
1.226167
1.2341184
1.2398087
1.244735
1.2484508
1.2493208
1.248541
1.2458742
1.2409057
1.2323337
1.2219986
1.2095342
1.1940389
1.1733552
1.1492908
1.1224498
1.093957
1.0634996
1.0347637
1.0090642
0.98670483
0.96522002
0.94515412
0.92574918
0.90657079
0.88638592
0.86772606
0.8525128
0.84157017
0.83295627
0.82591544
0.81896528
0.81074331
0.8003271
0.79083664
0.78727027
0.79438987
0.81462374
0.8495229
0.89809995
0.95582367
1.0155574
1.0711732
1.1182546
1.1524585
1.1699157
1.1691089
1.1519851
1.1210749
1.0801237
1.0347978
0.99400304
0.9644536
0.95007474
0.95118618
0.9678648
0.99582777
1.029024
1.0605837
1.0886309
1.1114568
1.1287482
1.1395726
1.1469716
1.1517227
1.1537332
1.1503481
1.1427705
1.1307804
1.114665
1.0936435
1.070554
1.0470662
1.0242563
1.001273
0.97960322
0.96017872
0.94409149
0.93183663
0.92638413
0.93013581
0.94392206
0.96572206
0.99376422
1.0252375
1.0566381
1.0843061
1.108004
1.1295473
1.1504803
1.1708581
1.1908054
1.2103898
1.2277079
1.2399313
1.2456416
1.2465069
1.244051
1.2392831
1.232712
1.2261579
1.2190442
1.2095876
1.1956203
1.1785226
1.158794
1.1370244
1.1129895
1.0895848
1.0674521
1.0465204
1.0251035
1.0049333
0.98583582
0.96747851
0.94783039
0.92875608
0.91060282
0.8941009
0.87908965
0.8690591
0.86645955
0.87323772
0.88919018
0.91557025
0.95132547
0.99363741
1.0374204
1.0796624
1.1172085
1.147405
1.1678767
1.1799642
1.18609
1.188444
1.1879042
1.1866381
1.1865757
1.1879887
1.1895408
1.1908649
1.1923022
1.1923827
1.1880409
1.17667
1.1577837
1.1307565
1.0960232
1.0560808
1.0168917
0.98285524
0.95628955
0.93675903
0.92414303
0.91537805
0.90693051
0.89557002
0.88286693
0.87024899
0.85928073
0.84949912
0.84248131
0.8371437
0.83199253
0.82445012
0.81676125
0.81065117
0.80817518
0.8093365
0.81645832
0.82949816
0.84761911
0.8685374
0.89332677
0.92206222
0.95388527
0.98561974
1.0158229
1.0421091
1.0621202
1.0737136
1.0789682
1.081325
1.083566
1.0860263000000001
1.0890711
1.0920937
1.0928171
1.0884523
1.079029
1.0675823
1.056984
1.0488878
1.0440859
1.0432435
1.0443261
1.0439721
1.0393586
1.0311972
1.020347
1.0079442
0.99463098
0.98310952
0.9737578
0.96563912
0.95629115
0.94625895
0.93497605
0.92207097
0.90618775
0.88971658
0.87393538
0.86037035
0.84900088
0.84367654
0.84647434
0.85885373
0.87963142
0.90985311
0.94795861
0.9909963
1.0336392
1.0736436
1.1083776
1.1358167
1.1536484
1.1635688
1.167706
1.1678307
1.1640351
1.1582469
1.1521969
1.1467495
1.1416774
1.1386012
1.1396734
1.1454329
1.1541746
1.1640622
1.173565
1.1800023
1.1805722
1.1744842
1.1641519
1.1517265
1.1386449
1.1256343
1.1145968
1.1051335
1.0957871
1.0847577
1.0734437
1.0624754
1.0524368
1.0429642
1.0362962
1.0328803
1.0326691
1.0341986
1.0393976
1.0486318
1.0618636
1.0764562
1.0932767
1.1107124
1.1267524
1.1375189000000001
1.1437808
1.1456018
1.1435799
1.1369825
1.1288672
1.1210223
1.1141492
1.1065732
1.0993095
1.0931506
1.0887933
1.0860425
1.0873993
1.0950751
1.1091392
1.1264755
1.1441225
1.1589692
1.1673262
1.1659953
1.1552812
1.138724
1.1196738
1.1002173
1.0818723
1.0665102
1.053924
1.0432912
1.0347885000000001
1.0317425
1.0363741
1.0494687
1.0696266
1.0960891
1.1251801
1.152573
1.1741016
1.1906179
1.2031409
1.2134808
1.2220042
1.2318744
1.2430257
1.2541483
1.2614981
1.2658237
1.2664811
1.2634369
1.2553813
1.2449919
1.233424
1.2214027
1.2078479
1.1948889
1.1836651
1.1747029
1.1666184
1.160359
1.1559302
1.1522998
1.1468294
1.1393556
1.1302175
1.119563
1.1069693
1.0941506
1.0834483
1.0758903
1.0708011
1.0678223
1.0669656
1.0669164
1.0656872
1.0624579
1.0585154
1.0544956
1.0505212
1.0467843
1.0450425
1.0451165
1.0457894
1.0453575
1.0453765
1.0459784
1.0469616
1.0469661
1.0484673
1.0517169
1.0564218
1.0603317
1.0656888
1.0724209
1.0800945
1.0856463
1.0907929
1.0949591
1.0975967
1.0963382
1.0931266
1.0882341
1.0813193
1.0699932
1.0552225
1.0374906
1.0177968
0.99670304
0.97787408
0.96386272
0.9549511
0.94809043
0.94083588
0.93079212
0.91677162
0.89984627
0.88611781
0.88409885
0.90080153
0.93942291
0.99892987
1.0730086
1.1514033
1.2236063
1.2829518
1.3273631
1.3575778
1.3758496
1.3848433
1.38662
1.3814833
1.3700742
1.3549106
1.3404801
1.3293298
1.3209699
1.3113865
1.2956613
1.2686156
1.2293991
1.1827933
1.139063
1.1060239
1.0855085
1.0709699
1.0527177
1.0208442
0.97376876
0.92117032
0.88284995
0.87613557
0.905694
0.95629
0.99659666
0.98778012
