0.69958097
0.74916235
0.80796334
0.84526834
0.85584878
0.85535835
0.86185341
0.8819376
0.90660542
0.92083414
0.91950847
0.90877236
0.89857199
0.89584738
0.89948059
0.90175877
0.89638404
0.88401941
0.86903403
0.85528099
0.84559772
0.83865326
0.82974802
0.8172975
0.80125012
0.78168096
0.7613978
0.74402056
0.73122846
0.72474616
0.72444163
0.72639467
0.72643416
0.72418217
0.72087644
0.71923202
0.72552345
0.74125424
0.76134712
0.78134973
0.79626535
0.80433479
0.81181195
0.82740025
0.85530166
0.8937993
0.93597471
0.97087114
0.99016567
0.99495492
0.99018951
0.98080202
0.9733915
0.96890465
0.9640013
0.95794013
0.95163938
0.94584809
0.94209267
0.94143102
0.94084063
0.93567584
0.92578683
0.9125996
0.89813597
0.88897224
0.88701869
0.88770567
0.88526603
0.87335282
0.84786837
0.81205606
0.77515499
0.74534677
0.72661869
0.71973424
0.71962005
0.7190328
0.71786251
0.717796
0.72055104
0.7303814
0.74799236
0.77009987
0.79472384
0.82128508
0.84842964
0.8753505
0.90263329
0.92780066
0.94639288
0.95813014
0.96214783
0.95775239
0.94919883
0.93982511
0.93060504
0.92317552
0.91806484
0.91336134
0.90782786
0.90280229
0.8984734
0.894038
0.89191734
0.89222002
0.89274136
0.89463046
0.89732585
0.89783307
0.89465648
0.88679233
0.87272199
0.85326746
0.83266315
0.81408171
0.79884244
0.78954179
0.785181
0.78147699
0.77818074
0.77410636
0.76743465
0.75998426
0.7537934
0.74925613
0.74776248
0.75137968
0.75961106
0.77088367
0.78581565
0.8031552
0.8200903
0.83812797000000006
0.85656545
0.87287446
0.88712497
0.89894138
0.90705114
0.91240045
0.91699401
0.9205591
0.92183007
0.92147564
0.91895334
0.91330737
0.90883368
0.90763134
0.90827712
0.91011753
0.91020521
0.9041692
0.89116888
0.87353436
0.85314174
0.8315065
0.81123637
0.7922462
0.77274502
0.75501608
0.73994249
0.72635177
0.71581024
0.70867733
0.70391359
0.70270318
0.70635457
0.71320092
0.72054004
0.72722361
0.73193475
0.73518211
0.74292887
0.75910364
0.78302462
0.8134383
0.84420555
0.86719765
0.87940018
0.88226573
0.87960522
0.87751933
0.88161746
0.89164576
0.9025865
0.9109565
0.91285364
0.90587457
0.89514573
0.88525866
0.87767149
0.87356639
0.87196248
0.87001693
0.86703873
0.86480963
0.86276046
0.85747747
0.8468295
0.82801227
0.79967033
0.76916315
0.74451233000000006
0.73033411
0.72864474
0.73510554
0.74027901
0.73717858
0.72522407
0.70851578
0.69504627
0.6951868
0.71332695
0.74588445
0.78761667
0.82870688
0.85898863
0.8757062
0.8803494
0.87661243
0.87118362
0.86993377
0.87414586
0.88257617
0.89450216
0.90740079
0.91823627
0.92821687
0.93675165
0.94120834
0.94227185
0.94012959
0.93456178
0.92843245
0.92500302
0.92414641
0.92352812
0.92107329
0.91322091
0.89715793
0.87608679
0.8531945
0.82966188
0.80889232
0.79205277
0.77862399
0.77044678
0.76918973
0.77302702
0.77822635
0.78117101
0.77783655
0.76706524
0.75436716
0.74481416
0.7399774
0.74187723
0.74833264
0.75577067
0.76523213
0.77921407
0.7983509
0.8220462
0.84783623
0.87021304
0.88471679
0.89257239
0.89596152
0.89605635
0.89695141
0.89833811
0.89667429
0.89120931
0.88177408
0.86820568
0.85284342
0.83896569
0.82709271
0.81618558
0.80692884
0.79849888
0.78892814
0.78044596
0.77295674
0.7635427
0.75165392
0.73683861
0.71925225
0.7029706
0.69360777
0.69314308
0.6996344
0.70975151
0.71786157
0.7194562
0.71737631
0.7154023
0.71551458
0.7204402
0.72899566
0.73754598
0.74560454
0.75462533
0.76504827
0.77694118
0.7905451
0.80381668
0.8146065
0.8251275
0.83595651
0.84484896
0.85169172
0.85505998
0.85393212
0.85192218
0.85338121
0.8585683
0.86430165
0.86644383
0.86015808
0.84391581
0.82398578
0.80670569
0.79389144
0.78627753
0.77963934
0.76826523
0.75211798
0.7349497
0.7203019
0.71079086
0.7071469
0.70624063
0.70444486
0.70277074
0.70247385
0.70292985
0.70623893
0.71110487
0.71432111
0.71691073
0.72164217
0.73095855
0.74806046
0.77473146
0.80793432
0.84204932
0.87305092
0.89637952
0.90838162
0.91175592
0.90905179
0.90173558
0.89354674
0.88610099
0.87856712
0.87148687
0.86625737
0.86288395
0.86116918
0.86209404
0.8641641
0.86413442
0.86287916
0.86078572
0.85742232
0.85596941
0.85801767
0.86183111
0.86570832
0.86763169
0.86408323
0.85307709
0.83673766
0.81730611
0.79637448
0.77829723
0.76418103
0.75149537
0.74056308
0.7307276
0.72073778
0.71274722
0.70907152
0.70918004
0.71185816
0.71670052
0.72203787
0.7271853
0.73615063
0.75179018
0.77412886
0.8045275
0.83993492
0.8741856
0.90375965
0.92655443
0.94131952
0.94984442
0.95560524
0.9595919
0.96095894
0.960462
0.95722827
0.94935004
0.94014048
0.9309734
0.92075033
0.91045231
0.9007342
0.89155406
0.88498205
0.88352854
0.88518104
0.88401943
0.87509477
0.85407879
0.82027399
0.78241898
0.75000646
0.72842135
0.72010218
0.7211421
0.72357827
0.72262833
0.71832863
0.71256241
0.70827476
0.70907771
0.71457824
0.72168711
0.7313875
0.74385693
0.75846577
0.77793289
0.80222342
0.82791505
0.85259332
0.87415199
0.89008545
0.90021149
0.90715278
0.91166705
0.91252677
0.9106654
0.90504901
0.89408961
0.88151162
0.87049922
0.86204177
0.85749502
0.85619944
0.85481242
0.85110106
0.84585403
0.83934227
0.83114553
0.82373948
0.8178114
0.81198115
0.80858466
0.80754125
0.80540706
0.79979979
0.78865027
0.77043711
0.74772365
0.72687008
0.7124736
0.70589903
0.70775704
0.71437085
0.71960491
0.72331759
0.72554861
0.72631516
0.7286891
0.7342783
0.74221402
0.75280476
0.76735473
0.78552292
0.80641887
0.83050742
0.85558712
0.87750431
0.89629919
0.91110839
0.92062856
0.92732228
0.93285017
0.93666248
0.93890013
0.93957844
0.93681361
0.92940562
0.9196478
0.90945926
0.89969486
0.89376177
0.89093835
0.88620428
0.8765229
0.85908142
0.83257664
0.80109593
0.77155379
0.74890645
0.73553106
0.73184836
0.73402022
0.73661218
0.73867427
0.73971859
0.7389658
0.73910332
0.74081404
0.74264578
0.74522072
0.74945626
0.75506545
0.76269012
0.77395263
0.78822335
0.80370296
0.8207969
0.83728155
0.84873572
0.85526545
0.85681628
0.85394049
0.85138859
0.85296833
0.85780569
0.86259962
0.86359996000000006
0.85666867
0.84099168
0.82249696
0.80639362
0.79342843
0.78458887
0.77660469
0.7652466
0.75167171
0.73884121
0.72766966
0.71788441
0.70856327
0.69805816
0.68733318
0.68186872
0.68417742
0.69065299
0.69778108
0.70099972
0.69956834
0.7019134
0.71713801
0.7471006
0.78584066
0.82162055
0.84288053
0.84735355
0.84455497
0.84593818
0.8567258
0.87580201
0.89318128
0.89786478
0.88919806
0.873466
0.85887584
0.85243947
0.85494074
0.86054672
0.86327435
0.86215613
0.85849967
0.85410333
0.8527903
0.85430531
0.85479863
0.85386978
0.85101373
0.84496454
0.83650047
0.82619103
0.81249378
0.79446045
0.77358952
0.75077524
0.7268115
0.70592415
0.69064874
0.68067308
0.67805118
0.68106087
0.68468294
0.6863379
0.68503512
0.68104325
0.67830101
0.68250693
0.69538398
0.71459114
0.73783415
0.76101372
0.78055932
0.79967941
0.82045054
0.84174645
0.86234965
0.87898373
0.88820447
0.8912999
0.89303783
0.89621858
0.90037623
0.90377611
0.90189643
0.89103926
0.8757013
0.86163912
0.85255623
0.85156811
0.8567223
0.86191843
0.86324604
0.86077955
0.85590937
0.85074074
0.84812014
0.84652068
0.84065275
0.82873927
0.80957856
0.78343964
0.75648693
0.73469179
0.72056895
0.71510876
0.71671648
0.72075841
0.72372874
0.72608496
0.7284186
0.73084788
0.73633441
0.74501463
0.75480131
0.76741665
0.78332213
0.80126703
0.82162057
0.84392168
0.86578944
0.8858527
0.90434709
0.91972113
0.92948351
0.9341852
0.93375565
0.92795633
0.92180707
0.91820601
0.91617474
0.91473252
0.91141793
0.90296478
0.88975727
0.87617509
0.86550028
0.85857706
0.8561945
0.85525461
0.85001004
0.84016923
0.82566204
0.8062511
0.78498081
0.76453529
0.74562584
0.72981109
0.71922112
0.71323795
0.70965995
0.70817117
0.7073707
0.70588738
0.7083398
0.71843563
0.7373546
0.76671731
0.80349626
0.84010594
0.87010361
0.88971991
0.89764752
0.89712584
0.89557654
0.89768583
0.90347955
0.91276544
0.92150954
0.92483807
0.92399673
0.92137085
0.91802062
0.9156257
0.91467404
0.91347157
0.91146674
0.9107134
0.91088452
0.90857332
0.90226449
0.88950528
0.86893327
0.84623217
0.82710127
0.81318887
0.80384809
0.79554183
0.78323308
0.76570527
0.74727577
0.73203835
0.72132469
0.7163117
0.71452563
0.7124486
0.71345282
0.72110802
0.73659853
0.7604465
0.78908178
0.81535624
0.83431964
0.84520909
0.84867072
0.84678828
0.84439542
0.84366062
0.84405631
0.84871084
0.85847348
0.87227835
0.89075072
0.91200812
0.93083481
0.9429704
0.94646316
0.94069999
0.928102
0.91497465
0.90469841
0.89576962
0.88785025
0.87846576
0.86571437
0.85340745
0.84533459
0.84105882
0.83743711
0.82981313
0.81373066
0.78979807
0.76564867
0.748436
0.74012064
0.74005978
0.74151816
0.73641644
0.72453332
0.70984883
0.69741197
0.69277633
0.69775912
0.70881596
0.72157771
0.7344916
0.7468172
0.75880685
0.77401545
0.79272177
0.811674
0.82985106
0.84451382
0.85264319
0.85521062
0.85431469
0.8507389
0.84557928
0.84062404
0.83575503
0.83040391
0.82702768
0.82566994
0.82323845
0.81974462
0.81416404
0.80570481
0.79756377
0.79246522
0.78869585
0.78198517
0.7682126
0.74434885
0.71232962
0.68181532
0.66198155
0.65585896
0.66312777999999994
0.67576214
0.68280524
0.67953892
0.66713063
0.65047344
0.63739781
0.63449998
0.64261177
0.65864665
0.67987098
0.70217777
0.72164075
0.73969698
0.75692044
0.77252199
0.7881211
0.80378276
0.81765844
0.82950317
0.83985494
0.84790884
0.85305095
0.85642683
0.85729291
0.85359121
0.84725857
0.83924609
0.82933808
0.82046513
0.81371573
0.80729604
0.80022033
0.79231592
0.78294073
0.77272959
0.76431051
0.7575317
0.74922949
0.73853703
0.72430175
0.70643661
0.69057263
0.68153187
0.67995469
0.68428423
0.69033533
0.69287808
0.69073139
0.68811508
0.6894836
0.69712242
0.71263964
0.73288877
0.75218148
0.76997534
0.78621712
0.80061766
0.81502925
0.8296984
0.84229352
0.85157033
0.85823315
0.86222667
0.86336953
0.86385473
0.86359987
0.8600563
0.85473214
0.84769396
0.83792858
0.82745188
0.81756775
0.80697774
0.79488793
0.78211085
0.76919655
0.75764408
0.75161177
0.75151859
0.7524595
0.75149767
0.74522151
0.73245529
0.71914579
0.71159112
0.71085821
0.71413339
0.71664382
0.71404877
0.70776939
0.7065081
0.71695354
0.73832996
0.76629654
0.79122851
0.80489998
0.81006842
0.81456982
0.82514095
0.84530749
0.8721493
0.89763058
0.91599918
0.92817481
0.93736565
0.94608243
0.95719789
0.96869424
0.9758264
0.97888886
0.97919834
0.9774704
0.97574092
0.974719
0.97253467
0.96823382
0.96357458
0.95903436
0.95344613
0.94781933
0.94117404
0.93097757
0.91953134
0.90804839
0.89537098
0.88146817
0.8655999
0.84582489
0.82267294
0.79972804
0.77954328
0.76340853
0.75386957
0.75034095
0.7495204
0.7525167
0.75878742
0.76649089
0.77683634
0.79031107
0.80571445
0.82340059
0.8442438
0.86653404
0.88762448
0.90674676
0.92161859
0.92960067
0.93358416
0.93523682
0.93453155
0.93392527
0.9337734
0.93202577
0.92846308
0.92394606
0.91799295
0.9104044
0.90294891
0.89500079
0.884039
0.87166831
0.85836071
0.84363744
0.83077414
0.82145076
0.81424627
0.80808899
0.80185521
0.79339303
0.78225955
0.77120244
0.76171159
0.75347944
0.74828469
0.74549469
0.74291367
0.74258295
0.745495
0.75070054
0.75848214
0.76795897
0.77645447
0.78324434
0.79059433
0.80029808
0.81353649
0.83273211
0.85586273
0.87693433
0.89323679
0.90174657
0.90092878
0.89482507
0.88840101
0.88384129
0.88170405
0.88116859
0.87872761
0.87134128
0.86065591
0.84800382
0.83263162
0.81715575
0.80164441
0.78478332
0.76880894
0.75581711
0.74515028
0.73554705
0.72582825
0.71390648
0.69959147
0.68740852
0.68061067
0.67870327
0.68233164
0.68858158
0.69326722
0.69737239
0.703038
0.71088687
0.7216038
0.73459509
0.74683248
0.75653914
0.76598669
0.77692666
0.78948745
0.8057952
0.82433143
0.84118604
0.85611385
0.86854559
0.87708557
0.88251706
0.88590315
0.88688049
0.88595198
0.88566494
0.88683391
0.88851643
0.89200839
0.89623058
0.89800942
0.89805101
0.89649824
0.89216877000000006
0.88594784
0.87876506
0.86926809
0.85634305
0.84139248
0.8254328
0.80944324
0.79752067
0.79045488
0.78433107
0.77750571
0.76730538
0.75196983
0.73538116
0.72272982
0.71588007
0.71424776
0.71594388
0.71735805
0.71700879
0.71933685
0.72798457
0.74273043
0.76410365
0.78862452
0.81231881
0.83688857
0.86531227
0.89785397
0.93258753
0.96498963
0.9883781
0.99909709
1.0002953
0.99618465
0.98903912
0.98261714
0.97664049
0.96902651
0.96205598
0.95785076
0.95554949
0.95336352
0.9488389
0.93912036
0.92458169
0.91025992
0.89889783
0.88800655
0.87460519
0.85328008
0.82059415
0.78221909
0.74726799
0.72299235
0.71348928
0.71698618
0.72613435
0.73399032
0.73838556
0.73917032
0.73730133
0.73692192
0.73938104
0.74358467
0.75197582
0.76505508
0.78088672
0.79853315
0.81554756
0.82766402
0.83306151
0.83370912
0.83197776
0.83046393
0.83352567
0.84108246
0.84860937
0.85408495
0.8541211
0.8460274
0.8324996
0.81767039
0.80385507
0.79263436
0.78452682
0.77681774
0.76630484
0.75417164
0.74188034
0.72963753
0.72121574
0.71694515
0.71373089
0.71045486
0.70630733
0.70026287
0.69376144
0.68963505
0.68841253
0.68907824
0.68956186
0.68724175
0.68229405
0.67967408
0.68284892
0.69147244
0.70270736
0.71120608
0.71476304
0.71859713
0.72976492
0.75009508
0.77463875
0.79529971
0.80798844
0.81910335
0.84180805
0.8799902
0.92041211
0.94072224
0.92582413
0.88663714
0.86022953
0.8815974
0.94968481
1.0151779
