0.8669936
0.84367258999999994
0.86454429
0.91483628
0.97335065
1.0266708
1.0718265
1.113989
1.1585925
1.2079581
1.2570754
1.2965495
1.3170025
1.3166296
1.299986
1.2754924
1.2501058
1.2291746
1.2130372
1.1987791
1.1821384
1.1630851
1.1436337
1.1266742
1.1133577
1.1050543
1.1008368
1.0984603
1.0949241
1.0900631
1.0841512
1.0773054
1.0684793
1.0580027
1.0457385
1.0312931
1.014531
0.99809418
0.98325486
0.97016196
0.95822196
0.94838003
0.94000103
0.93199672
0.92411672
0.91887155
0.91805807
0.92260354
0.93321855
0.95141933
0.97633966
1.0054616
1.0366743
1.069496
1.1019976
1.1312877
1.155526
1.1747407
1.1879026
1.193453
1.1916242
1.1849078
1.1749147
1.1621781
1.1481327
1.1350713
1.1235011
1.1122786
1.1013063
1.0915251
1.0827718
1.0737227
1.0645086
1.0560446000000001
1.0480383
1.0388619
1.0284877
1.0177399
1.0067519
0.99470039
0.98259734
0.97190221
0.96289586
0.95420053
0.94592071
0.93853297
0.93215186
0.92634231
0.92324836
0.92549255
0.93468804
0.95022465
0.97231541
0.99979583
1.0299068
1.0582465
1.0833159
1.1041047
1.1198041
1.128803
1.1328229
1.1332357
1.1306864
1.1240281
1.1152109
1.1055237
1.0955368
1.0838844
1.0723509
1.0618203
1.0525046
1.0427513
1.0342436
1.0276561
1.0229927
1.0182018
1.0143637
1.0112261
1.0079865
1.0021163
0.99479253
0.98632487
0.97702108
0.96567506
0.95467993
0.94497343
0.93691391
0.92876882
0.92210599
0.9169982
0.91348183
0.91020161
0.90979972
0.91347967
0.92215813
0.93456202
0.95271181
0.97607363
1.0034104
1.0314978
1.0608745
1.0899555
1.1168029
1.137884
1.1538518
1.1638232
1.1672888
1.1630769
1.1545592
1.1435646
1.1314711
1.1178815
1.1055085
1.0946967
1.0850125
1.0747611
1.0657021
1.057913
1.0509627
1.0433473
1.0364705
1.0298835
1.0225628
1.0129141
1.0025029
0.99172704
0.98073085
0.96917911
0.95905664
0.95035636
0.9419372
0.93208607
0.92182839
0.911801
0.90327552
0.89828001
0.90097274
0.91297157
0.93307949
0.95786818
0.98447397
1.0087538
1.027449
1.0400731
1.0502477
1.0610337
1.0737853
1.0882409
1.1037764
1.1169277
1.1234384
1.1212711
1.112489
1.0995782
1.0846085
1.0696955
1.0571736
1.0466141
1.0357856
1.0235384
1.0110301
0.9991624
0.98823795
0.97930144
0.97366024
0.9703514
0.96650517
0.96031259
0.95164734
0.94054819
0.92717281
0.91367766
0.90290819
0.89583395
0.89098159
0.88716392
0.88352902
0.87911977
0.87338872
0.86895443000000006
0.86973161
0.87843014
0.89495545
0.91880231
0.94775427
0.97800435
1.0051081
1.0282427
1.0482478
1.066074
1.0810681
1.0938946
1.1038896
1.1090145
1.1061474
1.0961652
1.0814263
1.0647559
1.0475594
1.0331308
1.0229589
1.016409
1.0103104
1.0041897
0.99763632
0.99048225
0.98160694
0.9730034
0.96575931
0.95989965
0.95325543
0.9462639
0.93857245
0.92973359
0.9182335
0.90605882
0.89454686
0.88460002
0.87516563
0.86777697
0.86251236
0.85904061
0.85570826
0.85464216
0.85737011
0.86551188
0.87882106
0.89978262
0.92807174
0.96170633
0.99578492
1.0288378
1.057935
1.0809931
1.0953802
1.103958
1.1082339
1.1095083
1.1067601
1.1023242
1.0961145
1.0877856
1.0758297000000001
1.0631461
1.051156
1.0408372
1.0311335
1.0236596
1.0175761
1.0114718
1.0030686
0.99397761
0.98475244
0.97582002
0.9664671
0.95851749
0.9518049
0.94556482
0.93838725
0.93189849
0.92654965
0.92238306
0.91863425
0.91676833
0.91674038
0.91810383
0.92022415
0.92507477
0.93328979
0.94456326
0.95764382
0.97289122
0.98884005
1.003392
1.0147788
1.024112
1.0314857
1.0364448
1.0385077
1.0392012
1.0383515
1.0349558
1.0284228
1.0205964
1.0120768
1.0025817
0.99197714
0.98183472
0.97216421
0.96200018
0.95095782
0.94054207
0.93104961
0.92176916
0.91246864
0.90427293
0.89704617
0.88975525
0.88233847
0.87624109
0.87188131
0.86856959
0.86629007
0.86585967
0.86682437
0.86763067
0.86800077
0.86901844
0.87122583
0.87439022
0.87963514
0.88865654
0.90167865
0.91709263
0.93421764
0.9526824
0.97121106
0.98761579
1.0019354
1.0150776
1.0271719
1.0368642
1.0444534
1.050334
1.0540016
1.0537825
1.0504997
1.0455474
1.0396789
1.0320748
1.023855
1.0159081
1.008248
0.99947357
0.99072845
0.98326546
0.97770426
0.97295948
0.9699625
0.96897408
0.96939565
0.96910145
0.96863994
0.96841502
0.96853021
0.96766748
0.96702744
0.96704511
0.9675435
0.96682848
0.96612871
0.96620953
0.96769659
0.96976492
0.97440345
0.98221613
0.9928153
1.0035738
1.0147615
1.0254859
1.0349375
1.0412374
1.0466839
1.0524576
1.059273
1.0653894
1.0722364
1.0789846
1.0842771
1.0849254
1.0825033
1.0774755
1.0706457
1.0609437
1.0514456
1.0428511
1.0351567
1.0261157
1.0173464
1.0086806
0.99991011
0.98944109
0.97957274
0.97084068
0.9633865
0.95579447
0.95001171
0.94613473
0.94382587
0.94148188
0.94070413
0.94131782
0.9426524
0.94299461
0.94377365
0.94500464
0.94658603
0.94798405
0.95189626
0.95952603
0.97137018
0.98674525
1.006978
1.030885
1.0559569
1.0788338
1.0990043
1.1149966
1.1256261
1.1303095
1.1317114
1.131005
1.1282616
1.122755
1.115791
1.1070251
1.0956825
1.0815753
1.0674056
1.0545851
1.0433436
1.0332822
1.0253261
1.018528
1.0110906
1.0019466
0.99254876
0.98353865
0.97477531
0.96628825
0.95932614
0.95361824
0.94796862
0.94206448
0.93740055
0.93455036
0.93307216
0.93295315
0.9349679
0.93849395
0.94194836
0.94507191
0.94918607
0.95499692
0.96229423
0.97182161
0.98460775
0.99989202
1.0151836
1.0292128
1.0415833
1.0513321
1.0569733
1.0593861
1.0604888
1.0612376
1.061008
1.0604777
1.0602195
1.0594765
1.0561087
1.0501682
1.0424493
1.0333146
1.0220654
1.0101148
0.99887405
0.98873154
0.97848629
0.96891943
0.96065898
0.95351267
0.9458445
0.93824503
0.93119133
0.92470291
0.91766368
0.91145418
0.90704623
0.90456119
0.90236491
0.90105542
0.90073914
0.90136789
0.90200916
0.90480752
0.91115592
0.92135153
0.93318803
0.94646826
0.95964285
0.97098841
0.97804372
0.982699
0.98648842
0.99058452
0.99377204
0.99739984
1.0007568
1.0025789
1.0002496
0.99577487
0.9904828
0.98564424
0.98025134
0.97630266
0.97332883
0.97013516
0.9637719
0.95577396
0.94669804
0.93740407
0.92694909
0.91794741
0.91065955
0.90471807
0.89794887
0.89198026
0.88702186
0.88332241
0.87977654
0.8785414
0.87985502
0.88339673
0.88742823
0.89331188
0.90090288
0.90987771
0.91898444
0.92997337
0.94293295
0.95737579
0.97165793
0.98675801
1.0018767
1.0157405
1.0264591
1.0352204
1.041959
1.0463884
1.0477419
1.0480043000000001
1.0474423
1.0455429
1.0411177
1.0356003
1.0290506
1.0211586
1.0115036
1.0023585
0.99446432
0.98757807
0.98076602
0.97501261
0.96964214
0.96324926
0.95457041
0.94481128
0.93420811
0.92246532
0.90944829
0.8969323
0.88544656
0.87473556
0.86478151
0.85720873
0.85225342
0.84903283
0.84682899
0.84635499
0.8473551
0.84910675
0.85194364
0.85771866
0.86693896
0.87860214
0.89183446
0.90640068
0.92084047
0.9331294
0.94310021
0.9524476
0.96216296
0.97200473
0.98235329
0.99375327
1.0050245
1.0135795
1.0184831
1.0202525
1.019019
1.0141505
1.0067664
0.99871913
0.99082366
0.98251496
0.97476196
0.96885385
0.96483724
0.96100427
0.95700847
0.95268608
0.94721532
0.93892295
0.92860836
0.91778905
0.90743894
0.89705623
0.88774257
0.88033838
0.87492872
0.87041674
0.86798722
0.86876373
0.87305169
0.87934308
0.88787791
0.89832546
0.90993603
0.92102688
0.93296662
0.94689544
0.96320152
0.98003843
0.99754465
1.0145631
1.0293221
1.0388146
1.0440752
1.0461627
1.0462113
1.0435991
1.0407019
1.0382716
1.0361758
1.0322984
1.0281617
1.02436
1.0212907
1.0174174
1.0143969
1.0120039
1.0092518
1.0031633
0.99467848
0.98387298
0.97135803
0.95657582
0.94289696
0.93182428
0.9239574
0.91722875
0.91260645
0.90921069
0.90642464
0.90289717
0.90166742
0.90463205
0.91328488
0.92682654
0.94655832
0.97087712
0.99709619
1.0211078
1.0426632
1.0606849
1.074625
1.0833824
1.0894647
1.0935761
1.095797
1.0949591
1.0930791
1.0903885
1.0866157
1.08056
1.0741728
1.0677076
1.0608902
1.0527116
1.0450999
1.0382279
1.0314865
1.0235227
1.0156351
1.0076264
0.99888769
0.98869567
0.9789704
0.97013941
0.96176351
0.95292653
0.94480906
0.93730096
0.92988879
0.92238353
0.91687684
0.9141558
0.91395947
0.91565063
0.91995139
0.92611901
0.93272593
0.93906244
0.9465703
0.95567727
0.96587698
0.97687569
0.98949459
1.0028167
1.0147815
1.0242507
1.0320359
1.0380947
1.0416055
1.0427343
1.0429641
1.0422913
1.0393875
1.0339714
1.0272116
1.0193935
1.0099443
0.99972724
0.9907117
0.98355287
0.97730969
0.97190823
0.96771366
0.96382574
0.95817126
0.95046884
0.94162809
0.93218518
0.92189529
0.91226798
0.90515632
0.90116876
0.89919039
0.8993511
0.90181186
0.90595697
0.91020065000000006
0.9152144
0.92216383
0.93173138
0.94331177
0.95802573
0.97632043
0.99725004
1.017931
1.0374824
1.054876
1.0689359
1.0777821
1.0828589
1.0856533
1.0870429
1.085959
1.0836964
1.080621
1.0764002
1.0691968
1.0605802
1.0517147
1.0432327
1.0337325
1.0245763
1.0159841
1.0076357
0.997622
0.98755722
0.97817635
0.96964101
0.95997397
0.95014235
0.93987239
0.92884094
0.91558918
0.90271731
0.89189974
0.88431046
0.87866462
0.87624772
0.87625469
0.87755674
0.87781117
0.8791518
0.88288129
0.89043018
0.90113741
0.91730972
0.93836442
0.96271867
0.98680763
1.0109903
1.0340908
1.0551248
1.0719462
1.0863496
1.0983021
1.107514
1.1123545
1.114992
1.1156889
1.1141948
1.1088361
1.1015005
1.0925376
1.0823317
1.0706041
1.0605631
1.0533034
1.0485275
1.043905
1.0394496
1.0334915
1.0245559
1.0115909
0.99744532
0.98387655
0.97167118
0.9600528
0.94989794
0.94027665
0.93005897
0.91865041
0.90877275
0.90210474
0.89916132
0.89912551
0.90226561
0.90713112
0.91211524
0.91680514
0.92400694
0.9356059
0.95201629
0.97225566
0.99546293
1.0182554
1.0364983
1.0478036
1.0536158
1.0557297
1.0558104
1.0557792
1.0581735
1.062669
1.0667594
1.0682914
1.0672527
1.0631926
1.0555106
1.0451805
1.0350046
1.0264606
1.0194798
1.0143861
1.012035
1.0113556
1.0095633
1.0049053
0.99718234
0.98614009
0.97159779
0.95566598
0.94169445
0.93155669
0.9247658
0.92087915
0.91924083
0.91825306
0.9159133
0.91297636
0.91169125
0.91380436
0.91936173
0.92919571
0.94350207
0.96125332
0.98030393
1.0010691
1.0243932
1.0500987
1.0757747
1.1002279
1.1214964
1.1370173
1.1438286
1.1432107
1.1378273
1.1304223
1.1218345
1.1145328
1.1092191
1.10487
1.0984919
1.0904468
1.0814379
1.0722834
1.0623204
1.0535371
1.0465205
1.0406179
1.0331014
1.0243981
1.0145148
1.0035582
0.99042718
0.97743345
0.96592418
0.95661863
0.94818314
0.9421333
0.93856371
0.9370717
0.93559273
0.93552088
0.93721839
0.94100766
0.94564736
0.95338651
0.96475936
0.97970803
0.99597696
1.0147408
1.0350797
1.0557259
1.0735466
1.0897361
1.103621
1.1145691
1.1204464
1.1234257
1.1237791
1.121579
1.1153128
1.1075201
1.0988573
1.0897422
1.0791559
1.0698499
1.0624972
1.0570475
1.0517025
1.0477766
1.0444308
1.0402534
1.032848
1.0235211
1.012408
0.99970865
0.98509878
0.97143948
0.9598506
0.95054978
0.94252192
0.93707787
0.93370732
0.93128124
0.92831367
0.92619281
0.92521814
0.92537944
0.92644477
0.93046353
0.93769711
0.9473041
0.95793505
0.97036528
0.98394088
0.99751001
1.010259
1.0236932
1.0376304
1.0506595
1.0612054
1.0697187
1.0754381
1.0773189
1.0754413
1.0724957
1.069808
1.0672403
1.0643801
1.0620129
1.0592975
1.0546046
1.0475698
1.0400793
1.0329465
1.0256206
1.0177367
1.0097887
1.0008775
0.98938908
0.97549505
0.96154005
0.9493289
0.9394645
0.93292665
0.93068654
0.9317556
0.93354756
0.9348734
0.93602736
0.93722311
0.938257
0.9407114
0.94668408
0.95687313
0.97008102
0.98614226
1.0049149
1.0252081
1.0445846
1.0627417
1.0798842
1.0954763
1.1075871
1.1164918
1.1226868
1.1260056
1.1250883
1.1213145
1.1163571
1.111227
1.1053334
1.1001415
1.0963478
1.0934772
1.0893296
1.0842625
1.0784252
1.0716123
1.0623913
1.0520918
1.0415083
1.0308578
1.01888
1.0070468
0.99616606
0.98650429
0.97672471
0.96822159
0.96156351
0.956989
0.953352
0.95245334
0.95488717
0.96046006
0.96699867
0.97532438
0.98532632
0.99709723
1.0095214
1.0249357
1.0433998
1.0631426
1.0789381
1.0886426
1.0889908
1.0785156
1.0566546
1.0298583
1.00394
0.9837846
0.96969506
0.96337242
0.96188687
0.96118365
0.95621188
0.94831752
0.9390203
0.93080046
0.92421873
0.92235165
0.92442942
0.92792906
0.92851324
0.92624956
0.92077252
0.91274144
0.90242789
0.89360752
0.88781853
0.88536545
0.88474154
0.88708224
0.89178328
0.89796148
0.90421739
0.91238579
0.92295662
0.9359749
0.95070856
0.9688952
0.99034289
1.01392
1.0376998
1.0620993
1.0857386
1.1065287
1.1221951
1.1332973
1.1393939
1.1403685
1.1369481
1.1307114
1.1222111
1.1119165
1.1011253
1.0917668
1.0842179
1.0775325
1.0703452
1.0615157
1.05001
1.0366193
1.0248009
1.0186811
1.0192711
1.0233374
1.0249332
1.0179577
0.99928149
0.97222064
0.94687089
0.93461968
0.94047165
0.9589469
0.97624378
0.97657759
0.95142198
0.90721968
0.86596055
0.85417512
0.88698235
0.95592067
1.0281254
1.0560395
