0.66143731
0.69651623
0.74114175
0.76674032
0.76959829
0.76571148
0.77330656
0.79913501
0.83427043
0.86379025
0.88108734
0.88937067
0.8955641
0.90580221
0.91939289
0.92971307
0.93165459
0.92433038
0.91038765
0.89562131
0.88632696
0.88514818
0.89073316
0.89980786
0.9070091
0.90738031
0.90108583
0.89065178
0.87804868
0.86753158
0.85973678
0.8521168
0.84607896
0.84188331
0.83750902
0.83259069
0.82598257
0.81524109
0.80087498
0.78565382
0.77062753
0.75607974
0.74314311
0.73077267
0.71790731
0.70815367
0.70366504
0.70354943
0.70999177
0.72189298
0.73646313
0.7551287
0.77876182
0.80573281
0.83499369
0.86460034
0.89092746
0.91248851
0.93037244
0.9440638
0.95214238
0.95515114
0.95251701
0.94417338
0.93536306
0.92925855
0.92508692
0.92287024
0.92007812
0.91347977
0.90489107
0.89811048
0.89466111
0.89470441
0.89706729
0.89761289
0.89308168
0.88520283
0.8755129
0.86370352
0.85166479
0.83812173
0.81953721
0.79784477
0.775593
0.75443783
0.73800351
0.72713974
0.7180279
0.70748776
0.69494748
0.68164322
0.67280873
0.67640327
0.69516239
0.72542379
0.76196973
0.79663989
0.82267362
0.84281005
0.86112316
0.87997724
0.90196476
0.92558256
0.94687192
0.96542906
0.98269922
0.99829375
1.0107483
1.0178819
1.0159416
1.0040198
0.9880772
0.97442289
0.96627889
0.96620251
0.97018807
0.97026739
0.96323226
0.94800637
0.92485521
0.89762347
0.87023405
0.84439587
0.82204442
0.80503482
0.79159472
0.77796549
0.76259988
0.74475349
0.72579338
0.71190462
0.70503296
0.70045816
0.694226
0.68311016
0.66932423
0.66419502
0.67734879
0.70718649
0.7423132
0.76737132
0.77276897
0.76465575
0.76173207
0.77798995
0.81166899
0.84758495
0.86410238
0.84933421
0.81469607
0.78167993
0.76703525
0.77563689
0.79647189
0.81307639
0.81902571
0.81901045
0.81982998
0.82351166
0.82508076
0.81556881
0.79226341
0.76476924
0.7453824
0.73956524
0.74509451
0.75043863
0.74408153
0.72632323
0.70526411
0.68950959
0.68400677
0.68569389
0.6860491
0.68008548
0.66964504
0.6594012
0.65413184
0.65714286
0.66641157
0.67747355
0.6897919
0.70214349
0.71189952
0.71933351
0.72312389
0.72166189
0.71781388
0.71492865
0.71379449
0.71436084
0.71504995
0.7124206
0.70526435
0.69629892
0.68762395
0.67995591
0.67498104
0.67156318
0.66691767
0.66291262
0.66047528
0.65904067
0.65975823
0.66211099
0.66390433
0.66513407
0.6667487
0.66835048
0.66971346
0.67139731
0.67240901
0.67182618
0.67236674
0.6750344
0.67772005
0.68069908
0.68220073
0.67989603
0.67665219
0.67507319
0.67491844
0.67602617
0.67722901
0.67654767
0.67494181
0.67537052
0.67756088
0.67839749
0.67600415
0.66947633
0.66106969
0.65807532
0.66290518
0.66933731
0.66986912
0.65902637
0.64073111
0.63273048
0.65489487
0.71445524
0.80074734
0.88844566
0.94908387
0.96774947
0.95073106
0.91629143
0.88274847
0.86174973
0.85241206
0.84668633
0.84156083
0.83642865
0.83107862
0.82657868
0.82124947
0.81192833
0.799783
0.78876738
0.78032985
0.77316076
0.76526765
0.75411088
0.74083325
0.73347058
0.73790922
0.75257855
0.77289079
0.78936265
0.79335409
0.78630235
0.77455864
0.76374678
0.75780768
0.75576407
0.75226232
0.74454125
0.73439355
0.72412266
0.71595312
0.71242082
0.7124588
0.71412816
0.72058758999999994
0.73439367
0.75566028
0.78610964
0.82344521
0.86240131
0.90043667
0.93487002
0.96128573
0.97714612
0.98245045
0.97866932
0.9705521
0.96496789
0.96374102
0.96268036
0.95703953
0.9418791
0.91610174
0.88866252
0.86858607
0.85925979
0.85967693
0.86204987
0.85593962
0.83782258
0.81197078
0.78530933
0.76495775
0.75578944
0.75621032
0.76153185
0.77031382
0.78103564
0.7913596
0.80232309
0.81228232
0.817447
0.81804695
0.8140099
0.80429288
0.79099991
0.77665675
0.76260963
0.75168201
0.74630017
0.74436229
0.74216851
0.73955439
0.73871462
0.74563881
0.77126048
0.81958116
0.88314882
0.94942286
1.0014939
1.0265071
1.0252753
1.0076217
0.98459625
0.96451014
0.94892622
0.93261076
0.91074765
0.88420838
0.85628703
0.83067301
0.81178389
0.79926028
0.78912945
0.78185415
0.77737869
0.77486754
0.77594795
0.78003535
0.78390925
0.78622192
0.78682022
0.78501965
0.78158461
0.77883364
0.77718659
0.77607527
0.77648227
0.77697714
0.77427741
0.76915008
0.76157121
0.75095787
0.74116362
0.73406215
0.72861436
0.72526141
0.72353218
0.72144039
0.71943674
0.71995326
0.72373526
0.73065573
0.74094
0.75124686
0.7565146
0.75585147
0.74903094
0.73686149
0.72513577
0.71757427
0.71399451
0.71411643
0.71571132
0.71526049
0.71277662
0.71118499
0.71230911
0.71716861
0.72680248
0.73850182
0.7477839
0.75417998
0.75688982
0.75432988
0.74965624
0.7442833
0.73792027
0.7330459
0.7309503
0.73024818
0.7300365
0.72902166
0.72461874
0.71622812
0.70616507
0.69605879
0.68725998
0.68330668
0.68595465
0.69526886
0.71385807
0.74049052
0.76984606
0.79890693
0.82529658
0.84835795
0.87218535
0.89999724
0.92839673
0.9493845
0.95448159
0.93794609
0.90272561
0.86216783
0.82957138
0.81102154
0.80655198
0.80728974
0.80182225
0.78770803
0.76792592
0.74760607
0.73340529
0.72760942
0.72704554
0.72856514000000006
0.73074084
0.73230415
0.73350075
0.73676791
0.74308878
0.75270894
0.76820261
0.78935975
0.81218429
0.83488015
0.85388457
0.86596649
0.87365356
0.88034779
0.8873381
0.89581065
0.90444556
0.90844033
0.9044048
0.89263289
0.87430638
0.85233117
0.83264612
0.8180496
0.80742659
0.8010605
0.79625579
0.78899334
0.7799123
0.76996211
0.75918161
0.74963643
0.74282172
0.73793537
0.73471518
0.73356214
0.73280976
0.73061367
0.72783395
0.72512606
0.72356821
0.72790242
0.73956961
0.75510783
0.77200372
0.78525685
0.79012518
0.78808221
0.78269761
0.77615223
0.77059767
0.76657857
0.76194211
0.75596283
0.75132359
0.74962307
0.75089627
0.75622379
0.76350348
0.76863835
0.77247423
0.775018
0.77501377
0.77341829
0.76970215
0.7620028
0.75153867
0.74147398
0.73427639
0.73241002
0.73747643
0.7469379
0.7561751
0.76270128
0.76393875
0.75833134
0.7498903
0.74204935
0.73619554
0.73497934
0.7374014
0.73918244
0.73823535
0.73416377
0.72756931
0.7219625
0.72151653
0.72628611
0.73304691
0.73852042
0.73827484
0.72962241
0.71645434
0.70303116
0.69134901
0.68482592
0.68264219
0.68056324
0.67762668
0.67432185
0.67063188
0.66829058
0.66920773
0.67188291
0.67397979
0.6757019
0.67656986
0.67617856
0.67793055
0.68273179
0.68775684
0.6933557
0.69784889
0.69871998
0.69791989
0.69760595
0.69789657
0.69929509
0.70135773
0.70193369
0.7011371
0.70299017
0.71183261
0.73157144
0.76612764
0.81389828
0.86797905
0.92253871
0.97012493
1.0038602
1.0234059
1.0308958
1.0291194
1.0231516
1.0166889
1.0097223
1.0015923
0.99248266
0.98206724
0.97101622
0.96181404
0.95359635
0.94186887
0.92393947
0.89680632
0.85912843
0.81762716
0.78006158
0.75133933
0.73491447
0.72933833
0.72849929
0.72777688
0.72589897
0.72264569
0.71950492
0.7197888
0.72400014
0.73043849
0.73920067
0.74768985
0.75089229
0.74903484
0.74214595
0.7311653
0.7218303
0.71723766
0.71521087
0.71323109
0.70971247
0.70569474
0.70840039
0.72756865
0.76574715
0.81593159
0.86610705
0.90163872
0.9136682
0.90782588
0.89517422
0.88511084
0.88352969
0.88694426
0.88611718
0.87580601
0.85663997
0.83323596
0.81283369
0.80077447
0.79597938
0.79368232
0.79046511
0.78364009
0.77277358
0.76282277
0.75687599
0.75378617
0.75352935
0.75322618
0.7488239
0.74126072
0.73355629
0.72745644
0.72473024
0.7258955
0.7279135
0.72772088
0.72551246
0.72110066
0.71407407
0.7070246
0.70004104
0.69098142
0.68244421
0.67532022
0.66881713
0.66478283
0.66329522
0.6623226
0.66229478
0.66510965
0.67227626
0.68669278
0.71186284
0.74739906
0.78972557
0.83543612
0.8787502
0.91362779
0.93977713
0.95745638
0.96663176
0.9702981
0.9694228
0.96259992
0.95038576
0.93388722
0.91350122
0.89128794
0.87036595
0.85170037
0.83532399
0.82243298
0.81182771
0.80064201
0.78966096
0.77864945
0.76604721
0.75435654
0.74479437
0.73654035
0.73078057
0.72797709
0.72627895
0.72460587
0.72263254
0.71881325
0.71260365
0.70589429
0.69901381
0.69139734
0.68556972
0.68288935
0.68336606
0.69053686
0.70297763
0.7143851
0.72064597
0.71949425
0.71319607
0.71179252
0.72588631
0.75796789
0.8016551
0.84500645
0.875026
0.88628142
0.88521688
0.88117942
0.87937356
0.88132689
0.88139028
0.87269586
0.85640545
0.83758404
0.82066395
0.80850186
0.79918754
0.78747004
0.77159724
0.75511954
0.74196634
0.73418825
0.73257194
0.73318438
0.73046613
0.72499319
0.71858743
0.71210308
0.7090932
0.70950851
0.70983452
0.70894148
0.70649782
0.70173071
0.6960338
0.69146261
0.68739856
0.68269345
0.67786597
0.67222004
0.66536328
0.6606092
0.65897249
0.65859446
0.66161824
0.6695164
0.68455942
0.71325117
0.75890388
0.81729649
0.87951274
0.93371748
0.96899412
0.98231515
0.9795628
0.96850247
0.95485694
0.94243454
0.93023425
0.91576111
0.90183203
0.89066869
0.88150446
0.8736956
0.86401851
0.84934424
0.83221051
0.81764199
0.80803341
0.80285542
0.7990797
0.79155411
0.77810637
0.76332045
0.75215191
0.746272
0.74671789
0.74979861
0.74971797
0.74697121
0.74359746
0.74066997
0.74039248
0.74220557
0.74238148
0.73959579
0.73497745
0.72907877
0.72299985
0.7184921
0.71386869
0.70635353
0.69737589
0.68848388
0.68124442
0.68209507
0.69431214
0.71707888
0.74965451
0.78791431
0.82509238
0.85708993
0.88202836
0.89860357
0.90793897
0.91308258
0.91513994
0.91420508
0.91203661
0.90835526
0.9013284
0.89261782
0.88235382
0.86927258
0.85547736
0.84196953
0.82780798
0.81404743
0.80159311
0.78919144
0.77656966
0.76523552
0.75505659
0.74562689
0.73885444
0.73473958
0.73170903
0.7312544
0.73262442
0.73229235
0.73010177
0.72511595
0.71593648
0.70547824
0.69674794
0.6897591
0.68467554
0.68196818
0.68112178
0.68339916
0.69179892
0.7048732
0.71765984
0.72864179
0.73922214
0.75556275
0.79071227
0.84989601
0.92395186
0.99427771
1.0380999
1.0406107
1.0063814
0.95513322
0.9085295
0.88040021
0.87233803
0.87498283
0.87844918
0.88214361
0.88995325
0.90404972
0.92558473
0.94754933
0.95831897
0.95362759
0.93486758
0.90667478
0.87728499
0.85277146
0.83312261
0.81621448
0.80091063
0.78543434
0.76925465
0.7553778
0.74445524
0.73411704
0.72494062
0.71613448
0.70613765
0.69917329
0.69773637
0.70060233
0.70800558
0.71939067
0.73458186
0.75849325
0.79798859
0.85506485
0.92575531
1.0014176
1.0687046
1.1160714
1.1413607
1.1473453
1.1388885
1.1252554
1.1109358
1.0959778
1.0821635
1.0702874
1.0601226
1.0535146
1.0514082
1.0510841
1.0492909
1.0447604
1.0363256
1.0243988
1.0138568
1.006064
0.99648875
0.9820221
0.95815545
0.92239803
0.88136666
0.84348119
0.81310109
0.7916741
0.77667874
0.763359
0.75107126
0.74314607
0.73998954
0.73827179
0.73465347
0.72569524
0.71265123
0.70496275
0.70763744
0.71642927
0.72540441
0.72859139
0.7291773
0.74522411
0.79557043
0.88412003
0.99551696
1.0993103
1.1643678
1.1783318
1.153918
1.1157364
1.0852514
1.0723258
1.0697686
1.0630117
1.0469555
1.0238241
1.0000204
0.98314864
0.97313254
0.96221365
0.94351174
0.91450053
0.87653699
0.83556484
0.79987729
0.77332645
0.75510106
0.74420665
0.73664633
0.72741482
0.71791592
0.71004102
0.70426512
0.70363935
0.70799899
0.71319133
0.71682281
0.71737169
0.71284483
0.70445476
0.69566445
0.68800627
0.68275917
0.68252164
0.68574164
0.68844323
0.69125393
0.6952686
0.70323046
0.72416559
0.76334719
0.81864268
0.88369451
0.94618193
0.99168792
1.0128967
1.0119586
0.99752516
0.98248496
0.97908206
0.99055353
1.0108367
1.0310302
1.0406957
1.0328477
1.0112957
0.98343953
0.95619785
0.9360937
0.92408246
0.91572724
0.90724984
0.89653038
0.88184295
0.86368347
0.84494846
0.8268661
0.80974695
0.79687039
0.78895337
0.78303854
0.77882737
0.77389425
0.76488275
0.75404868
0.74376265
0.73404464
0.72611107
0.71994546
0.71381281
0.70846384
0.70592848
0.70474682
0.7017489
0.69618545
0.68830041
0.68148622
0.68455018
0.70076073
0.72476376
0.75031995
0.77069709
0.78543024
0.80581163
0.84473012
0.90553337
0.97955067
1.0481227
1.0908376
1.0988287
1.080135
1.0502552
1.0224466
1.0037989
0.98987024
0.97035904
0.94279249
0.9095776
0.87580203
0.84911721
0.83211603
0.82083348
0.81091137
0.79965408
0.78571855
0.77120443
0.76088242
0.75671231
0.75746353
0.76159097
0.76466343
0.76163125
0.75345934
0.74241609
0.73098998
0.72508189
0.72830963
0.74077953
0.76272273
0.7913983
0.81936048
0.84000126
0.85081975
0.85285598
0.85274407
0.86113362
0.88093398
0.90451971
0.92191125
0.92247485
0.9027415
0.87450646
0.85232209
0.8434497
0.84645069
0.85030182
0.84189598
0.81809257
0.78699126
0.75956744
0.74325293
0.73899623
0.73979604
0.73787511
0.73360338
0.7309802
0.73367741
0.74773808
0.77482703
0.81347278
0.864188
0.92379981
0.98175612
1.0250713
1.0425887
1.0297292
0.99480172
0.95641985
0.93036534
0.92205714
0.92748652
0.93349779
0.92706828
0.90806007
0.88313731
0.86054556
0.84844162
0.84631679
0.84614242
0.8418472
0.83196496
0.81950574
0.81183262
0.81526765
0.82826722
0.84327868
0.85361414
0.85567644
0.85264696
0.8566862
0.87726462
0.91395349
0.9594434
0.99845773
1.015918
1.0089277
0.98492755
0.95640253
0.93543742
0.92534114
0.92034533
0.91311977
0.89933048
0.87801312
0.85200074
0.82642084
0.80476867
0.78996866
0.78558196
0.78896677
0.79168257
0.78571523
0.76789164
0.74595905
0.73703675
0.75227193
0.78429284
0.80996833
0.80629388
0.77121286
0.7326947
0.73054352
0.77999923
0.84956644
