1.1057181
1.1077555
1.153604
1.206213
1.2317616
1.2180923
1.1748466
1.1220835
1.0777276
1.0484934
1.0293932
1.0101489
0.98689388
0.9636729
0.94917772
0.94938903
0.96568197
0.99187686
1.0178298
1.0348329
1.0409779
1.039209
1.0339001
1.0284526
1.0239037
1.0185639
1.0094802
0.99688417
0.98429358
0.97743188
0.98135598
1.0007817
1.0363546
1.083512
1.1337862
1.1787237
1.2089669
1.2175719
1.2045777
1.1759953
1.1399784
1.1033011
1.0739084
1.055203
1.0458541
1.0395468
1.0346192
1.0287723
1.0217103
1.0146085
1.0117911
1.0137772
1.0166103
1.0142702
1.0014839
0.97438739
0.93263086
0.88331626
0.83625267
0.79961803
0.77570149
0.76519337
0.76342492
0.7645326
0.76414357
0.76429902
0.76733691
0.77423364
0.78404106
0.79526667
0.80514943
0.81245252
0.82231944
0.8433646
0.88257641
0.94013671
1.0127131
1.0892974
1.1557574
1.1990473
1.2162713
1.2093607
1.1842734
1.1483555
1.109752
1.0723166
1.0364463
1.0031487
0.97455555
0.95194744
0.93448968
0.92313486
0.91698168
0.91372462
0.90917834
0.90394901
0.89740081
0.88872282
0.87673456
0.8631477
0.84928194
0.83694713
0.82991174
0.83347748
0.85052477
0.87960212
0.91775571
0.95938689
0.9972981
1.0236898
1.0368657
1.0370869
1.0266608
1.0083294
0.98784435
0.96877796
0.95304736
0.94247197
0.93981209
0.94548029
0.95740482
0.974409
0.99450861
1.0142241
1.0285626
1.0370595
1.0393402
1.0353122
1.0238209
1.007839
0.98876399
0.96763047
0.94580494
0.92723642
0.91417845
0.90686837
0.90569339
0.91100454
0.92164015
0.93479077
0.95023626
0.96703382
0.98287298
0.99259004
0.99461278
0.98642452
0.96698813
0.93743977
0.90383234
0.87147569
0.84394063
0.82394612
0.81354756
0.81250176
0.81921137
0.83492472
0.86098254
0.89702503
0.93877109
0.98320735
1.0243667
1.0559604
1.0728867
1.0765541
1.0697287
1.0561494
1.0401486
1.0264377
1.016277
1.0078256
1.0004287
0.99427579
0.98957558
0.98552196
0.98465105
0.98771976
0.99338532
0.99737541
0.9983532
0.99381452
0.98224421
0.96423967
0.94421097
0.92543053
0.90899315
0.8957603
0.88623048
0.87964133
0.87456615
0.87358083
0.87954278
0.8938992
0.91386246
0.93766373
0.95981835
0.97416093
0.97599804
0.96686261
0.95031042
0.93108776
0.91531465
0.90921505
0.91531532
0.93194422
0.95768866
0.98941281
1.0221806
1.0489946
1.0668718
1.0725727
1.0644287
1.0426297
1.0127189
0.9802036
0.95015142
0.92717254
0.91540323
0.9154325
0.92468292
0.94098769
0.96169169
0.98310408
1.0000487
1.0117139
1.0176893
1.0182526
1.01295
1.0058092
0.99901545
0.99349113
0.98936025
0.98872754
0.99201574
0.99817868
1.0072255
1.0195496
1.0334891
1.0445813
1.0502921
1.0473504
1.0325888
1.0027964
0.96154085
0.913558
0.86517323
0.8224748
0.79217848
0.77509337
0.76627515
0.75893077
0.74842893
0.73350174
0.71829742
0.71468678
0.73551689
0.78823517
0.86955449
0.96935154
1.0694143
1.150572
1.198833
1.2128316
1.1989396
1.1683496
1.1334033
1.1047987
1.086772
1.0778429
1.0760081
1.0790722
1.0841441
1.0866847
1.0852653
1.077355
1.0606297
1.033287
1.0007053
0.96917903
0.94542532
0.93471546
0.94105685
0.96137187
0.9861784
1.0046031
1.0079716
0.99132277
0.95482584
0.90717103
0.85967007
0.82178975
0.79652987
0.78456402
0.78105124
0.78019002
0.77855411
0.77903953
0.78603476
0.80270441
0.83002085
0.86554199
0.90228109
0.93159702
0.95020275
0.95889244
0.96155806
0.9622824
0.96801195
0.98151893
1.002028
1.0258016
1.0518257
1.0776868
1.1008635
1.1199376
1.1355469
1.1468113
1.1515396
1.1495162
1.141262
1.1268362
1.1050186
1.07807
1.047514
1.014488
0.97862104
0.94315321
0.9088878
0.87526966
0.84143059
0.80975962
0.7826446
0.76240482
0.75254279
0.75591761
0.77104369
0.79104063
0.80917116
0.81895065
0.81718948
0.80450698
0.79068893
0.7857295
0.79680761
0.82484895
0.86691914
0.91359534
0.9532417
0.97787946
0.98595957
0.97965266
0.96271069
0.94182669
0.92224403
0.90681867
0.89561575
0.89246612
0.8993142
0.91662329
0.942195
0.97542297
1.012408
1.0481686
1.0792111
1.1054542
1.1263997
1.14032
1.1465746
1.1444972
1.1330669
1.1111477
1.0826821
1.0523878
1.0245677
1.0008178
0.98436444
0.97561098
0.97394855
0.97875088
0.99087443
1.0081734
1.0248726
1.0342724
1.0307145
1.0111135
0.97663911
0.93653488
0.90202691
0.88193312
0.87783626
0.88916961
0.90953264
0.93195094
0.95206371
0.97186592
0.99309161
1.0142904
1.0308804
1.0370796
1.0273818
1.0005538
0.96536431
0.93574286
0.92446695
0.93586634
0.96841598
1.0100827000000001
1.0445452
1.0574467
1.0455862
1.0125817
0.96723727
0.92025568
0.88114932
0.85335548
0.83504612
0.82412902
0.81885427
0.81790088
0.81965024
0.82591261
0.83694407
0.85166123
0.8671593
0.88412086
0.90179372
0.91919963
0.9355785
0.95224222
0.96876989
0.98313441
0.99417176
1.0014329
1.0040616
1.0008826
0.99468099
0.98855636
0.98515071
0.98449073
0.9885549
0.99520215
1.0001153
0.9981632
0.98751807
0.96683951
0.93616712
0.89853677
0.85929414
0.82276628
0.79129411
0.76806249
0.75443588
0.74963538
0.75042347
0.75689389
0.76844283
0.78458528
0.80402989
0.82789296
0.85440351
0.87939147
0.89802774
0.90738012
0.90532294
0.89166799
0.87091358
0.84948136
0.83249602
0.82110857
0.81616058
0.81469736
0.81226462
0.80436412
0.79258624
0.77944371
0.76828768
0.76216242
0.76406435
0.77280298
0.78384951
0.79315235
0.79806137
0.79692732
0.78923675
0.77972136
0.77420116
0.77804142
0.79309351
0.82212381
0.86222667
0.90611289
0.94345176
0.96677929
0.97018875
0.95171807
0.91549422
0.87112946
0.8287878
0.79575405
0.7777138
0.77562299
0.78553263
0.79918939
0.81217753
0.82075072
0.82353543
0.82059374
0.81637728
0.81314407
0.81049314
0.8064883
0.80032883
0.79140705
0.78065348
0.77316139
0.77536694
0.79120612
0.81920817
0.85666242
0.89776099
0.93666912
0.96880078
0.99639341
1.0215138
1.0441812
1.0610761
1.0686837
1.0625617
1.040898
1.0088001
0.97680277
0.95516642
0.9487919
0.95932501
0.98242806
1.0108418
1.0366201
1.0593565
1.0793669
1.0961488
1.1059687
1.1049999
1.0881444
1.0532535
1.0051169
0.9549973
0.91437038
0.88966393
0.88255041
0.88847385
0.89968568
0.90885824
0.91707713
0.92876367
0.94887389
0.97824127
1.0151308000000001
1.0516306
1.0776854
1.0864335
1.0781596
1.0572963
1.0302222
1.0055526
0.99035634
0.98809246
0.99810481
1.0209302
1.0538068
1.0908975
1.1227927
1.1425962
1.1431681
1.1208064
1.0775312
1.0226454
0.96667323
0.91833893
0.88430846
0.86722689
0.86485033
0.87169167
0.8852247
0.90321763
0.92350052
0.94189575
0.95779803
0.96862435
0.97197709
0.96654189
0.95612972
0.94425262
0.93313316
0.92443758
0.91962842
0.91779009
0.91633145
0.91559417
0.91614149
0.91744831
0.91631162
0.91267854
0.90517928
0.89331935
0.87773119
0.86380298
0.85493336
0.85143507
0.8509815
0.85049164
0.84528864
0.83191066
0.81271045
0.79350109
0.7803716
0.77666823
0.78556943
0.80619021
0.8355222
0.86971958
0.90940378
0.95467762
1.0045446
1.0559751
1.1053119
1.1456488
1.1691165
1.1716555
1.1540151
1.1202097
1.0759361
1.0306464
0.99222194
0.96534558
0.94968186
0.94574798
0.95026994
0.95858885
0.96565239
0.96959637
0.96760786
0.95639342
0.93434884
0.90283857
0.86441857
0.82265205
0.78453283
0.75633088
0.74068127
0.73443228
0.73440205
0.73528051
0.7334384
0.72844259
0.7264204
0.73311754
0.75102718
0.77817393
0.80959841
0.83746003
0.85483736
0.86120343
0.86086448
0.85947368
0.85996301
0.86486713
0.87173902
0.87605699
0.87362897
0.86744136
0.86181712
0.86144394
0.86931733
0.88725113
0.91195487
0.93670299
0.95634075
0.96880815
0.9734592
0.96976038
0.96095641
0.94979914
0.9380437
0.92517091
0.91457379
0.90752102
0.9039069
0.90176738
0.90068384
0.89824604
0.89112765
0.87751473
0.85843604
0.83521508
0.8086572
0.78192646
0.75827604
0.73994004
0.72680581
0.72133477
0.7237967
0.7331319
0.74692745
0.76605946
0.79064001
0.82087015
0.85778964
0.90369468
0.95800164
1.0164539
1.0740771
1.1249676
1.1627517
1.1815613
1.181881
1.1666984
1.1410378
1.1095334
1.0801755
1.0574232
1.0427189
1.0353172
1.0355644
1.0416867
1.0504837
1.0600124
1.0691574
1.0753645
1.0741823
1.0644083
1.0459735
1.0206015
0.99044042
0.96301353
0.94353123
0.93411797
0.93275438
0.93715857
0.94273888
0.94518267
0.94332126
0.93952121
0.9359617
0.93248111
0.92902673
0.92433059
0.91701852
0.90619988
0.89741113
0.89619626
0.90652628
0.92812084
0.95993173
0.99578171
1.027951
1.0513654
1.0662602
1.0746008
1.0785357
1.0815734
1.0855565
1.0892508
1.0886317
1.0836485
1.0749505
1.06454
1.053933
1.0479956
1.0473926
1.0490961
1.0477394
1.0397764
1.0219013
0.99315199
0.95782207
0.92372476
0.89771721
0.88259931
0.88000772
0.88756651
0.90063337
0.91325262
0.9251128
0.93570435
0.94443983
0.94954744
0.95094114
0.94697897
0.93643289
0.92128972
0.90690125
0.89791683
0.89597412
0.90206183
0.91429096
0.92894686
0.94146836
0.95302252
0.96474198
0.97723297
0.98877869
0.99893149
1.0044558
1.0021789
0.9921408
0.97928692
0.96878238
0.96372373
0.96620517
0.97493768
0.98500009
0.98922278
0.98539313
0.9730234
0.9536491
0.92904642
0.90520328
0.886389
0.87572691
0.87518124
0.88662581
0.90726963
0.92965789
0.94570284
0.94932452
0.93788416
0.91333278
0.88549263
0.8648214
0.85742728
0.86067063
0.86977502
0.87613649
0.87400238
0.86400863
0.85574861
0.85885836
0.8774399
0.90815291
0.94146046
0.9642131
0.96623599
0.94886397
0.92250189
0.90124676
0.89505433
0.90930435
0.93841137
0.96980729
0.98940367
0.99114304
0.97484525
0.94618688
0.91464647
0.89095002
0.88110746
0.88546428
0.90246692
0.92884092
0.9595403
0.98783885
1.0108313
1.0259018
1.0315389
1.0265942
1.0152018
1.0005292
0.98497952
0.97022627
0.95945466
0.95407226999999994
0.95403248
0.95974035
0.97080991
0.98364235
0.99127843
0.9888381
0.9731185
0.94484237
0.90807469
0.87413279
0.85217201
0.84671283
0.85574163
0.87451108
0.89518121
0.91152302
0.92311626
0.93474303
0.95084839
0.97158095
0.99426574
1.0125032
1.0196868
1.0122568
0.99625452
0.98061511
0.973244
0.97604891
0.9874979
0.99966739
1.0035787
0.99482183
0.97638734
0.95394507
0.93233693
0.91519124
0.90228838
0.89007483
0.87402018
0.85579176
0.83940650000000006
0.82960276
0.82796804
0.83575634
0.84826952
0.85796321
0.85814038
0.84755728
0.82774353
0.80235246
0.77721745
0.75766085
0.74545738
0.73840689
0.73568398
0.73659632
0.74187853
0.75245786
0.77403952
0.80881503
0.85457834
0.90395411
0.94870148
0.97831836
0.98436588
0.96527221
0.92746935
0.88117725
0.83669164
0.80462382
0.79100557
0.79602893
0.81403134
0.84099591
0.87106781
0.89847112
0.91760083
0.92757953
0.92779454
0.91883764
0.90338031
0.88671515
0.87242704
0.86111667
0.85315118
0.84827863
0.84565031
0.84406964
0.84674046
0.85631398
0.87342664
0.89461187
0.91693334
0.93487127
0.94344531
0.9406492
0.93029608
0.91762447
0.90718743
0.90299231
0.9070726
0.91798415
0.93147069
0.94631137
0.96176505
0.97737202
0.99078728
1.0033134
1.0136522
1.0195031
1.0182585
1.0112504
0.99985129
0.98560383
0.97147493
0.96180244
0.95911054
0.96318792
0.97444079
0.99132475
1.0096651
1.0223041
1.0259898
1.0181561
0.99899023
0.97122824
0.94305626
0.92135018
0.90995507
0.90926732
0.91752501
0.92927661
0.93764013
0.93968442
0.93632269
0.93082683
0.9266887
0.93019203
0.94464847
0.96981456
1.0010873
1.0353523
1.0669006
1.0896693
1.099126
1.0959446
1.0822247
1.0612657
1.0391918
1.0228683
1.0159605
1.0173184
1.0255685
1.0368322
1.0463614
1.0487959
1.044865
1.0351144
1.0203691
1.0010706
0.98034164
0.95994255
0.94134509
0.92758623
0.92266501
0.92764323
0.93938745
0.9537852
0.96481858
0.96642931
0.95416349
0.93164508
0.90558296
0.88459596
0.87575566
0.88666957
0.91838473
0.96582649
1.0204683
1.0746533
1.1203307
1.1507698
1.1646091
1.1637122
1.1505881
1.1264591
1.095919
1.0623309
1.0286496999999999
0.99684504
0.97201834
0.95617819
0.94851389
0.94604218
0.94631019
0.94532248
0.93932865
0.92793406
0.91289628
0.89521489
0.8737014
0.84924234
0.82263853
0.79616334
0.77337061
0.76502142
0.78094912
0.82782701
0.9054799
1.0077522
1.1185562
1.2160493000000001
1.2804034
1.3006749
1.2768172
1.2196105
1.1500443
1.089379
1.0505903
1.0324418
1.0265593
1.0173754
0.99137894
0.94327003
0.88224196
0.82267624
0.77813444
0.75617622
0.75689836
0.77165934
0.78847072
0.80087109
0.80943811
0.81927837
0.83516094
0.86224382
0.89944606
0.94040548
0.97542403
0.99992025
1.0111181
1.0091358
0.9961847
0.97748007
0.9564284
0.93450258
0.91414301
0.89918404
0.89283711
0.89628834
0.91238894
0.94083644
0.97790574
1.0156653
1.0494895
1.07286
1.0808792
1.0717829
1.050573
1.0235055
0.99669767
0.97623002
0.96741607
0.97114508
0.98388831
1.0023336
1.0225919
1.0403555
1.0506678
1.0532549
1.0483949
1.0376085
1.022933
1.010312
1.0040882
1.0064034
1.0175828
1.0374877
1.0622642
1.0849601
1.1004067
1.1052106
1.0971441
1.0757099
1.0437812
1.0040937
0.96000327
0.91588185
0.87862822
0.8538995
0.84581196
0.85673966
0.88711659
0.93439624
0.9946074
1.0639833
1.135838
1.198586
1.2369185
1.2383339
1.1970964
1.1205552
1.029326
0.95233591
0.91071473
0.90830791
0.93033852
0.95347664
0.95997652
0.95225122
0.95527446
1.0005752
1.1016122
1.2359233
1.3470936
